7.28
5.46
3.74
2.03
0.57
-1.17
-4.14
-8.03
-11.36
-13.73
-16.46
-20.81
-26.58
-32.28
-37.02
-42.4
-51.27
-62.6
-69.37
-64.52
-48.59
-29.01
-13.01
-2.37
5.65
13.68
21.05
25.58
27.28
28.46
30.73
33.29
34.34
33.38
31.22
28.37
25.09
22.05
19.47
17.07
14.96
13.45
12.18
10.59
8.75
6.89
4.75
1.87
-1.47
-4.52
-7.69
-12.28
-18.2
-23.69
-27.96
-32.64
-40.06
-50.09
-58.09
-57.32
-45.52
-28.01
-12.33
-1.46
6.34
12.97
18.17
21.33
23.37
25.75
28.65
31.3
33.27
34.27
33.24
30.05
26.8
25.26
24.22
21.77
18.22
15.23
13.52
12.29
10.38
7.94
5.92
3.87
0.38
-4.65
-9.35
-11.64
-11.74
-12.68
-16.68
-22.47
-28.19
-33.93
-40.55
-48.88
-58.6
-64.63
-59.62
-43.35
-24.29
-9.6
0.65
9.08
16.39
21.95
25.57
27.86
29.49
30.95
32.6
34.0
33.79
31.56
28.68
26.68
25.47
23.94
21.67
19.09
16.55
14.27
12.36
10.43
7.7
4.23
0.74
-2.62
-6.16
-9.64
-12.33
-14.38
-16.67
-19.76
-23.78
-28.75
-34.05
-39.61
-47.8
-59.83
-69.77
-68.05
-52.69
-31.93
-14.16
-0.45
12.09
24.97
37.44
48.48
58.16
67.4
76.71
86.2
96.34
106.8
115.61
121.28
124.43
125.86
124.49
117.27
98.57
63.05
15.17
-30.98
-68.12
-102.05
-136.45
-164.11
-176.76
-173.07
-157.09
-135.25
-111.46
-82.84
-46.37
-9.51
12.87
12.76
-5.64
-33.69
-65.92
-100.74
-135.55
-161.04
-165.29
-147.23
-120.35
-98.97
-84.97
-70.36
-49.41
-25.29
-4.94
9.32
22.04
40.65
68.53
100.6
128.55
148.9
162.84
171.34
173.23
166.27
150.24
129.06
107.34
86.43
66.7
50.71
40.64
33.34
20.35
-3.24
-30.27
-49.19
-59.21
-70.05
-88.5
-111.31
-128.24
-129.87
-115.95
-95.11
-75.61
-59.37
-44.46
-30.14
-18.33
-10.33
-4.23
2.4
9.29
15.06
19.37
22.78
25.78
28.14
29.39
29.79
29.94
29.69
28.52
26.55
23.91
19.81
13.63
6.71
1.43
-2.2
-7.06
-14.96
-24.25
-32.73
-40.43
-49.2
-60.72
-72.22
-74.57
-60.05
-32.39
-3.46
18.67
33.56
43.77
51.34
56.72
59.27
59.16
58.4
59.1
61.31
62.7
60.53
54.84
48.2
41.79
34.42
25.73
17.21
9.51
1.4
-7.75
-17.04
-26.15
-36.48
-50.08
-66.83
-81.25
-83.85
-69.48
-43.35
-16.06
6.01
23.28
37.94
49.76
57.38
61.14
62.84
63.89
65.11
66.62
67.23
65.64
62.31
58.66
55.17
51.68
48.44
45.95
44.32
43.06
41.66
39.96
37.78
34.7
30.87
27.01
23.2
18.71
13.06
6.4
-0.96
-9.08
-18.73
-30.34
-42.42
-53.18
-63.57
-76.75
-94.41
-112.54
-120.44
-108.62
-79.44
-45.57
-18.18
0.01
13.13
26.79
41.8
53.4
58.12
58.65
60.61
66.29
71.8
70.3
59.09
42.82
28.66
19.69
13.66
7.12
-1.57
-13.31
-28.24
-44.13
-57.46
-65.8
-68.25
-65.68
-60.73
-55.87
-52.91
-54.07
-60.56
-69.26
-73.09
-65.62
-44.34
-10.24
31.2
67.9
88.1
91.99
89.6
87.64
84.92
78.56
68.48
56.62
44.74
34.2
26.13
19.64
11.89
2.17
-6.04
-8.98
-6.69
-2.72
-0.88
-1.9
-3.28
-2.98
-1.41
-0.06
-0.64
-5.45
-16.49
-32.67
-48.13
-54.91
-49.73
-38.19
-29.38
-26.56
-25.45
-20.23
-8.6
6.56
19.28
25.69
27.17
28.39
33.03
39.09
39.3
28.63
10.39
-7.53
-20.5
-29.59
-36.92
-40.89
-39.62
-37.0
-38.37
-43.11
-46.12
-42.29
-30.51
-19.86
-26.29
-56.19
-98.92
-137.33
-157.85
-154.49
-131.97
-101.46
-69.78
-36.17
0.67
36.49
64.37
82.41
95.72
108.63
117.34
113.05
91.38
57.88
25.12
3.91
-2.92
0.66
9.5
20.92
35.08
50.95
62.22
60.94
45.01
16.64
-23.18
-72.52
-124.96
-170.91
-198.2
-196.52
-169.28
-133.66
-102.85
-76.83
-51.7
-26.28
1.04
30.89
58.21
76.55
86.74
95.77
107.32
117.2
118.03
108.85
99.41
99.76
103.67
91.74
56.57
14.25
-14.94
-22.66
-8.19
24.07
65.46
112.44
165.96
215.27
237.19
216.62
158.91
83.63
11.78
-43.42
-78.67
-97.59
-104.06
-98.7
-85.71
-76.98
-79.71
-85.91
-84.13
-74.14
-59.43
-36.3
-4.14
24.42
38.34
43.09
49.15
54.55
48.67
26.27
-7.85
-42.95
-69.06
-83.84
-91.44
-93.85
-88.79
-77.05
-63.31
-49.73
-35.98
-23.34
-12.84
-3.08
6.51
13.99
18.33
21.45
25.81
32.22
38.53
39.88
34.04
25.46
17.59
5.0
-19.08
-51.9
-83.55
-105.55
-115.57
-118.12
-120.0
-124.04
-128.97
-132.13
-128.98
-114.65
-89.56
-60.03
-32.07
-7.41
14.59
33.77
49.33
61.46
70.64
75.87
78.22
83.26
92.2
96.54
90.28
79.6
74.32
81.68
107.74
145.37
166.81
148.92
98.4
37.94
-18.37
-64.07
-91.06
-96.04
-88.13
-81.66
-84.47
-97.53
-117.98
-136.01
-137.6
-118.87
-91.06
-66.95
-48.14
-29.08
-8.2
9.94
21.77
29.31
36.59
45.38
54.96
63.32
68.17
68.68
66.41
63.32
59.71
54.87
48.94
42.93
37.28
31.3
24.07
15.38
5.37
-6.07
-18.98
-32.63
-46.44
-61.63
-79.53
-98.69
-116.35
-132.71
-151.55
-173.64
-189.2
-183.04
-151.45
-107.45
-65.78
-30.16
3.26
37.33
70.56
99.34
122.77
143.43
163.22
180.87
194.58
203.92
208.76
209.05
206.75
203.82
196.87
177.64
141.63
94.63
49.64
16.93
-3.94
-21.12
-39.71
-58.67
-78.35
-101.62
-124.66
-136.08
-129.36
-109.47
-85.54
-61.84
-37.37
-11.57
12.49
32.51
52.08
75.34
97.89
110.28
109.51
100.93
90.29
79.08
67.33
56.62
47.66
38.01
25.99
14.02
4.78
-2.07
-6.58
-7.07
-5.04
-8.17
-23.97
-50.53
-78.73
-103.14
-122.59
-132.09
-125.63
-105.37
-79.96
-56.94
-40.79
-32.8
-28.59
-19.76
-2.15
19.16
35.82
44.69
46.89
43.63
36.94
30.48
26.33
23.46
20.61
18.26
15.89
9.71
-3.65
-21.15
-33.27
-32.5
-20.84
-5.69
9.44
24.81
38.28
45.07
43.49
37.16
31.07
26.47
21.58
16.85
15.64
17.81
18.02
13.59
9.34
13.28
29.76
51.63
60.62
45.76
16.37
-13.58
-41.2
-63.95
-70.98
-57.37
-33.53
-12.57
2.32
13.49
20.77
23.01
21.98
19.95
16.32
9.75
1.64
-5.22
-10.29
-15.2
-20.32
-24.06
-25.62
-25.7
-24.85
-24.12
-26.58
-35.25
-49.46
-63.08
-67.15
-57.61
-39.46
-20.54
-4.35
8.94
19.36
26.36
28.69
25.39
18.03
10.49
6.0
4.71
4.28
2.8
0.45
-2.47
-7.53
-16.26
-27.84
-40.31
-53.17
-67.67
-84.27
-98.15
-98.64
-78.48
-42.82
-5.19
23.91
41.6
49.71
50.85
46.92
39.65
31.13
22.97
15.95
10.33
5.07
-2.14
-12.2
-23.41
-34.19
-44.33
-52.24
-54.72
-51.0
-44.8
-40.82
-38.59
-31.49
-14.41
9.09
30.11
43.34
49.61
51.68
51.38
49.63
46.73
42.65
38.11
34.62
32.27
29.1
23.8
17.42
11.28
5.08
-2.24
-10.41
-18.17
-25.4
-33.97
-45.65
-57.9
-62.83
-54.01
-34.48
-13.95
1.02
10.05
14.76
16.33
15.72
13.46
9.54
4.49
-0.12
-3.38
-6.59
-11.12
-14.87
-14.04
-8.11
-0.14
7.13
12.36
14.52
12.66
5.5
-7.96
-23.83
-32.12
-25.71
-8.03
11.54
26.44
35.48
40.16
41.94
41.34
38.9
36.13
34.26
33.19
32.14
30.34
26.86
21.33
15.1
10.02
5.81
0.42
-7.32
-15.92
-22.55
-26.61
-31.09
-39.72
-52.93
-65.33
-67.49
-54.27
-31.61
-10.96
2.22
9.76
13.38
12.48
8.35
4.48
1.91
-1.22
-5.24
-8.25
-9.29
-8.62
-5.17
2.74
14.18
24.94
30.68
30.22
25.4
17.94
7.93
-5.32
-21.35
-35.91
-41.54
-33.9
-16.69
1.91
16.15
24.39
27.26
26.73
25.42
24.55
23.87
23.83
26.91
36.67
53.95
73.13
85.89
91.28
96.28
104.3
110.73
111.14
105.46
92.59
68.0
28.94
-20.14
-67.32
-100.02
-113.79
-113.41
-106.62
-99.24
-94.18
-91.63
-89.69
-85.96
-79.55
-71.46
-63.04
-54.78
-47.72
-43.95
-44.04
-45.61
-46.38
-47.17
-49.82
-53.36
-54.14
-49.32
-39.71
-29.47
-21.79
-13.96
0.82
24.36
49.36
67.39
77.33
83.66
91.44
102.98
114.78
119.35
113.47
101.09
87.18
72.88
56.57
36.62
12.92
-12.44
-35.89
-54.65
-68.29
-77.67
-83.61
-87.99
-93.67
-99.8
-99.3
-86.0
-62.49
-36.7
-13.96
3.37
13.48
17.62
20.71
25.82
31.64
36.47
41.45
50.05
65.74
87.6
107.04
114.2
109.26
101.21
95.35
88.97
79.32
67.23
52.2
31.06
2.59
-29.93
-59.27
-76.53
-77.2
-66.09
-53.22
-45.64
-44.64
-48.24
-54.28
-61.25
-67.48
-71.57
-73.29
-73.14
-71.87
-70.21
-67.62
-61.69
-50.27
-34.47
-17.82
-2.88
9.31
17.13
19.31
17.07
12.13
4.51
-5.85
-17.48
-27.03
-29.19
-20.41
-4.02
12.38
24.22
30.97
32.72
30.82
29.17
30.24
31.72
30.5
27.21
24.05
20.72
15.36
7.64
-0.76
-8.0
-14.16
-21.0
-28.91
-35.62
-38.89
-38.29
-34.48
-29.18
-24.14
-17.67
-5.54
12.17
29.43
41.38
48.64
52.88
53.56
51.05
48.15
46.64
45.67
44.23
42.22
39.58
36.11
31.86
27.02
22.13
17.73
13.6
9.15
4.32
-0.67
-5.98
-11.64
-16.57
-19.33
-20.31
-21.92
-26.46
-34.36
-43.45
-48.51
-44.88
-33.86
-21.43
-11.3
-2.71
5.03
10.53
13.08
14.24
15.46
16.48
16.66
15.8
13.52
9.4
3.75
-2.32
-7.17
-9.23
-7.64
-2.4
5.87
15.65
24.69
31.13
34.26
33.88
29.79
22.63
14.36
6.77
-0.15
-7.99
-17.89
-28.36
-35.03
-33.79
-24.91
-13.06
-2.84
4.8
11.14
16.37
19.52
20.57
20.76
21.04
21.47
21.66
21.15
19.61
17.24
14.91
13.79
13.91
13.72
11.98
9.27
6.69
4.18
1.17
-2.58
-7.16
-12.28
-16.69
-19.42
-21.72
-26.1
-32.92
-38.82
-39.08
-31.69
-19.33
-7.05
2.18
8.39
12.1
13.65
14.44
15.73
17.18
18.27
19.38
20.25
19.73
17.73
15.24
12.82
10.64
9.21
8.45
7.18
4.9
2.48
0.71
-0.72
-2.42
-4.17
-5.49
-7.11
-10.1
-13.81
-16.44
-18.07
-20.73
-26.01
-33.47
-40.26
-42.18
-37.26
-28.75
-22.27
-19.53
-17.2
-13.16
-9.87
-9.5
-10.42
-10.97
-11.72
-12.34
-10.42
-4.25
5.28
15.85
26.08
35.51
42.59
45.41
44.18
41.04
37.24
32.49
27.09
22.4
18.58
14.34
9.22
4.15
-0.09
-3.41
-6.56
-10.79
-16.18
-19.91
-18.19
-10.61
-0.65
8.81
17.73
26.23
32.96
37.33
41.12
47.45
58.14
71.34
82.01
86.38
85.32
81.74
78.3
79.9
91.62
111.82
134.69
158.74
182.91
196.97
187.92
155.8
114.06
74.71
40.94
12.54
-10.67
-30.89
-50.26
-66.99
-78.71
-87.66
-97.52
-106.39
-108.45
-102.77
-94.64
-87.77
-81.38
-75.05
-70.28
-66.77
-62.58
-58.11
-55.35
-53.94
-52.06
-49.76
-48.39
-48.03
-47.61
-46.4
-44.06
-40.95
-38.29
-36.71
-35.25
-33.44
-32.28
-32.14
-32.37
-33.06
-34.92
-37.52
-39.76
-41.24
-41.41
-38.15
-29.97
-19.11
-9.47
-2.21
2.01
1.57
-2.6
-7.06
-9.52
-12.14
-15.97
-19.58
-21.99
-26.0
-33.89
-42.91
-50.32
-55.53
-66.73
-82.57
-97.31
-106.45
-120.74
-151.49
-186.83
-216.61
-241.14
-287.49
-343.62
-385.13
-408.11
-434.31
-454.5
-425.01
-376.84
-209.58
102.79
352.76
473.58
514.23
515.14
485.26
442.74
397.61
355.48
294.67
230.96
201.91
211.96
212.99
160.98
79.04
16.32
-0.62
12.77
33.26
46.25
47.51
38.18
21.09
4.32
-7.16
-13.06
-14.34
-12.58
-10.54
-10.29
-12.55
-18.19
-25.53
-30.68
-34.01
-39.32
-45.21
-46.24
-42.04
-37.32
-34.84
-33.48
-31.09
-27.1
-23.29
-22.23
-24.35
-26.85
-25.98
-20.55
-12.33
-3.1
6.54
15.48
21.69
24.26
24.72
25.03
25.32
24.58
23.04
21.87
20.97
19.09
16.33
14.62
14.48
13.73
11.13
8.23
6.16
4.17
2.15
0.52
-1.82
-5.51
-8.89
-11.07
-13.86
-18.56
-23.91
-27.91
-29.88
-31.66
-35.58
-39.79
-39.15
-32.36
-23.6
-16.05
-8.63
-0.01
8.19
13.65
16.85
19.62
21.96
22.65
22.14
21.83
21.7
20.85
19.41
17.99
16.63
15.35
14.37
13.51
12.32
10.6
8.69
7.04
5.22
2.4
-0.95
-3.67
-5.6
-7.71
-10.9
-15.27
-19.76
-23.53
-27.48
-33.17
-40.43
-46.72
-48.52
-44.17
-35.43
-25.85
-17.61
-10.08
-1.88
6.06
11.35
13.93
16.03
18.71
21.22
23.09
24.41
24.63
23.06
20.66
19.22
18.61
17.05
14.24
11.65
9.81
7.76
4.79
1.07
-2.84
-6.22
-8.72
-10.97
-14.15
-18.66
-23.64
-28.51
-34.28
-41.41
-47.14
-47.41
-41.48
-32.21
-22.45
-12.86
-3.12
5.87
12.45
16.2
18.37
20.23
22.06
23.54
24.2
24.21
23.84
22.63
20.4
18.38
17.62
16.92
14.06
9.66
7.22
6.94
3.11
-7.84
-20.98
-31.38
-44.84
-71.51
-109.26
-142.1
-161.38
-179.26
-206.05
-223.38
-197.29
-111.47
8.35
98.03
121.84
126.09
163.98
207.17
208.7
187.38
175.47
158.09
118.0
75.27
59.32
88.63
162.52
238.08
258.89
225.45
182.1
144.05
99.18
50.96
6.2
-43.75
-99.75
-144.45
-167.12
-177.14
-184.88
-185.52
-171.49
-148.03
-126.05
-108.1
-89.56
-69.42
-52.59
-41.74
-33.21
-23.21
-12.29
-2.61
4.41
7.45
6.6
4.9
5.07
5.87
4.62
1.15
-3.38
-8.97
-16.15
-24.47
-33.52
-44.54
-58.63
-73.42
-82.87
-81.95
-71.51
-56.65
-40.57
-23.44
-7.01
4.42
8.73
8.28
7.19
7.57
9.57
13.13
16.38
15.15
8.19
-2.47
-17.5
-37.79
-58.36
-73.91
-83.55
-84.94
-75.18
-57.82
-38.42
-17.94
1.52
13.01
12.45
4.95
0.79
6.89
22.34
42.4
63.96
84.96
101.74
111.18
114.27
114.86
115.29
115.23
114.18
112.34
109.11
103.29
95.1
86.46
78.88
71.94
64.22
55.44
46.76
38.89
30.95
21.84
11.61
0.71
-10.98
-23.25
-34.83
-45.05
-55.32
-67.78
-83.65
-101.15
-113.18
-110.9
-93.23
-68.45
-44.18
-21.54
0.32
19.85
34.22
42.36
46.42
49.28
51.85
54.22
56.29
56.11
51.87
45.46
40.08
36.04
32.03
27.84
23.41
18.0
11.82
5.77
-0.54
-8.14
-16.44
-24.14
-31.45
-40.1
-52.0
-66.81
-79.18
-80.57
-67.27
-44.6
-20.98
-0.12
18.6
34.69
45.58
50.72
52.95
54.91
56.53
57.14
57.05
55.82
51.91
45.72
39.88
35.51
31.04
25.58
20.38
16.07
11.23
4.59
-3.18
-10.42
-16.31
-21.73
-28.28
-35.84
-42.83
-49.16
-57.31
-69.51
-83.55
-91.57
-85.26
-64.41
-38.05
-14.75
4.33
20.97
33.85
41.03
44.23
46.65
49.16
51.11
52.27
52.2
49.9
45.34
40.02
35.5
31.65
27.65
23.39
19.09
14.44
9.5
4.97
0.62
-4.32
-9.42
-14.08
-19.07
-25.3
-32.17
-38.55
-44.55
-51.99
-62.8
-75.44
-82.41
-75.41
-54.54
-28.84
-6.71
10.11
22.73
31.2
35.77
38.18
40.07
41.7
42.91
43.68
43.51
41.47
37.48
32.71
28.3
24.57
21.23
17.89
14.29
10.46
6.33
1.29
-5.05
-11.95
-18.01
-23.0
-28.3
-35.03
-42.65
-50.43
-58.86
-69.64
-83.64
-97.08
-101.46
-91.67
-72.62
-53.8
-39.86
-29.95
-23.25
-20.24
-19.47
-17.57
-12.08
-1.41
16.46
42.48
74.16
106.04
132.43
150.55
160.85
163.35
155.57
136.09
108.58
79.23
51.67
27.08
6.58
-9.97
-25.1
-40.28
-54.03
-65.15
-74.09
-81.77
-89.68
-97.23
-97.9
-85.79
-65.0
-44.51
-27.62
-13.39
-2.52
3.89
7.33
10.59
14.94
19.24
21.99
22.81
21.7
18.75
14.99
11.8
9.39
6.9
3.74
0.34
-2.81
-6.21
-10.33
-14.95
-20.04
-25.8
-31.32
-35.69
-40.01
-46.7
-56.44
-65.89
-68.67
-60.32
-43.09
-24.18
-9.08
1.83
10.56
17.61
21.96
23.81
25.2
27.35
29.34
29.89
28.81
26.55
23.6
20.53
17.77
15.36
13.17
11.19
9.09
6.28
2.8
-0.67
-3.85
-7.06
-10.62
-14.46
-17.97
-21.08
-24.78
-29.12
-32.3
-34.15
-37.57
-44.05
-50.09
-49.74
-39.9
-23.27
-6.73
4.39
11.08
18.29
27.51
34.52
35.15
29.82
21.98
15.11
10.95
8.87
7.22
5.6
4.57
3.79
2.71
1.88
1.69
1.0
-1.69
-6.73
-13.59
-21.21
-27.66
-30.67
-28.65
-22.33
-15.79
-13.94
-16.98
-18.3
-9.58
9.87
30.71
43.48
47.97
48.61
45.49
36.45
23.81
12.71
5.4
1.34
0.05
0.79
1.94
2.82
4.63
8.98
16.5
26.24
36.03
44.2
50.39
54.73
56.2
52.07
40.44
23.71
7.51
-5.46
-18.61
-36.64
-56.19
-65.98
-59.16
-42.27
-28.45
-24.28
-26.68
-30.18
-35.72
-46.12
-59.48
-68.66
-69.62
-64.08
-52.78
-35.54
-13.3
11.06
39.93
73.11
105.57
132.77
134.54
116.26
96.07
79.51
67.93
63.25
57.01
42.78
32.47
44.68
74.5
92.75
76.45
27.31
-41.3
-109.51
-154.29
-167.0
-153.44
-115.48
-61.35
-17.45
-5.82
-19.85
-37.32
-45.84
-43.57
-30.9
-12.72
3.2
16.21
30.35
43.46
50.03
51.53
53.5
57.82
64.49
72.61
77.4
71.76
48.02
0.1
-63.99
-116.89
-135.51
-124.23
-104.56
-91.81
-88.72
-91.44
-94.05
-92.38
-87.61
-84.63
-86.22
-89.64
-88.99
-81.6
-71.17
-62.4
-55.29
-46.75
-33.8
-14.66
7.9
26.61
37.7
44.12
48.25
49.08
47.67
48.25
54.0
67.03
87.96
111.37
127.92
132.16
123.63
105.34
84.98
69.29
55.62
36.89
12.83
-10.03
-27.43
-41.82
-57.33
-72.36
-79.98
-76.2
-64.94
-53.96
-48.24
-47.48
-48.3
-48.22
-46.95
-44.77
-41.82
-36.53
-23.95
-0.28
30.74
61.72
89.98
116.03
137.5
150.61
155.74
157.26
158.51
157.52
147.0
120.43
79.51
34.12
-6.09
-39.34
-69.85
-100.15
-128.95
-155.34
-177.74
-189.01
-180.88
-154.55
-120.04
-85.29
-51.24
-16.86
15.92
43.61
64.48
78.69
86.83
90.49
93.34
99.85
111.22
123.14
128.62
121.6
96.77
53.17
0.57
-45.53
-78.72
-105.1
-127.56
-134.03
-110.97
-64.39
-12.49
37.05
84.88
125.65
151.59
159.35
149.93
133.13
118.7
94.12
37.7
-44.8
-124.6
-179.2
-198.49
-182.52
-145.27
-103.28
-62.01
-23.14
6.1
19.08
17.21
8.64
0.67
-5.48
-12.31
-20.34
-27.57
-33.43
-40.97
-53.2
-66.91
-72.89
-63.74
-38.79
-3.06
36.52
75.55
110.43
134.69
144.2
142.52
137.72
134.75
127.16
105.85
80.44
69.13
67.67
58.25
41.49
33.22
43.05
68.84
96.29
103.27
76.92
27.49
-18.64
-41.51
-43.57
-42.3
-48.4
-55.77
-53.36
-40.2
-25.93
-19.93
-23.12
-30.18
-37.54
-47.12
-63.19
-88.6
-124.84
-173.31
-231.61
-287.72
-324.25
-332.09
-314.86
-281.21
-239.94
-198.93
-159.57
-116.0
-66.59
-20.19
15.79
48.05
89.49
141.14
191.05
228.66
252.04
265.03
273.54
278.83
271.38
239.93
188.0
133.0
87.21
48.34
12.26
-14.71
-24.69
-20.35
-9.82
1.88
11.26
17.02
24.2
38.36
56.98
73.14
81.58
77.37
60.01
43.46
45.95
62.58
63.45
24.01
-55.09
-147.38
-211.11
-221.98
-195.95
-159.89
-121.23
-84.83
-63.23
-53.87
-38.51
-10.52
19.23
39.77
47.51
41.34
22.44
-1.02
-18.4
-28.56
-39.25
-52.69
-61.64
-62.89
-62.47
-65.18
-68.09
-62.2
-43.05
-26.67
-36.24
-65.46
-81.88
-67.37
-28.46
19.62
55.62
60.9
39.31
11.66
-9.51
-25.69
-39.64
-50.06
-55.26
-55.83
-54.85
-52.47
-39.73
-10.65
20.97
35.04
29.97
18.02
8.28
5.53
11.76
22.51
30.52
32.65
31.38
31.99
36.62
40.55
38.17
31.24
26.36
24.24
18.48
7.09
-3.05
-6.03
-3.08
-2.75
-19.57
-56.84
-90.26
-92.28
-66.22
-33.93
-5.74
16.35
28.24
33.01
41.65
56.02
66.16
68.01
70.5
80.48
91.42
94.06
90.96
91.82
97.43
94.15
63.89
4.47
-56.64
-84.01
-73.98
-53.16
-40.28
-36.59
-43.52
-59.36
-70.21
-67.42
-58.41
-46.9
-22.25
20.93
67.76
92.3
76.02
25.87
-23.33
-38.66
-19.65
12.59
43.98
70.88
89.66
97.58
95.0
80.68
51.35
9.27
-33.43
-61.74
-71.14
-72.45
-80.62
-98.9
-112.83
-104.03
-73.74
-45.7
-43.15
-69.32
-106.97
-128.51
-114.35
-69.3
-15.39
30.6
64.96
89.73
107.76
122.65
137.18
151.12
156.81
138.24
90.65
36.89
3.4
-9.39
-13.91
-12.88
-7.17
-4.45
-5.73
-0.01
19.98
47.16
70.06
88.15
109.93
135.75
152.87
148.06
118.06
77.22
58.35
81.92
121.63
129.26
90.51
29.35
-28.52
-71.35
-95.02
-100.31
-93.4
-83.16
-78.1
-81.92
-85.82
-68.87
-24.01
15.63
-0.46
-84.21
-190.48
-257.98
-262.77
-230.46
-198.48
-180.14
-169.98
-160.8
-144.77
-119.42
-95.24
-79.76
-61.57
-26.09
21.2
60.57
82.1
91.27
92.88
82.87
59.45
30.95
6.99
-10.41
-23.29
-32.45
-38.71
-41.71
-36.5
-19.0
5.58
26.79
38.87
40.98
34.41
27.28
32.65
51.1
66.15
65.91
54.01
33.99
4.97
-24.61
-42.13
-49.1
-56.15
-64.44
-66.03
-58.66
-49.08
-42.32
-34.51
-18.66
6.12
33.31
54.84
66.73
69.89
67.89
64.29
60.56
55.43
47.0
36.49
28.07
22.24
13.07
-3.23
-21.79
-36.76
-49.93
-66.68
-88.63
-111.27
-123.61
-113.43
-80.63
-40.48
-7.91
15.08
32.36
44.03
49.43
52.36
56.73
61.4
64.6
68.1
72.03
71.86
65.16
55.39
46.23
36.93
25.15
11.17
-1.37
-9.7
-15.82
-23.33
-32.73
-42.81
-53.42
-65.92
-83.1
-106.35
-128.74
-135.77
-118.07
-80.62
-36.89
3.5
38.61
68.76
92.22
108.21
119.88
129.99
136.45
135.7
128.49
119.14
110.6
103.27
96.94
90.99
83.97
75.28
66.19
58.08
50.82
42.94
33.03
22.12
12.89
5.19
-4.35
-17.6
-32.94
-47.45
-60.15
-74.08
-93.7
-116.36
-129.33
-120.84
-92.43
-56.43
-23.62
3.06
25.65
45.57
61.01
69.45
71.88
72.6
74.99
79.05
82.44
82.93
80.26
75.56
69.5
62.47
55.82
50.4
45.42
40.35
35.67
31.18
26.14
20.53
14.58
8.11
1.14
-6.55
-16.11
-27.9
-40.33
-51.93
-63.84
-79.4
-99.65
-117.83
-121.6
-104.74
-73.95
-41.54
-15.23
4.19
19.28
31.81
41.55
48.15
52.0
53.84
55.08
56.62
56.85
54.03
49.03
43.85
39.41
35.73
31.95
26.56
18.86
9.23
-1.66
-13.05
-24.37
-35.77
-47.49
-58.56
-67.88
-76.28
-86.43
-100.21
-113.99
-117.12
-100.57
-67.54
-29.91
4.03
32.46
54.04
66.93
72.32
74.12
75.03
75.31
75.21
75.55
75.55
72.69
65.67
56.38
48.06
42.84
40.91
39.76
35.26
25.71
14.29
5.91
3.19
5.44
9.59
11.39
7.61
-1.38
-11.36
-18.3
-22.92
-28.96
-37.21
-44.77
-50.22
-56.34
-66.88
-82.25
-96.6
-99.42
-85.23
-60.29
-35.29
-15.01
1.11
13.8
23.25
29.79
33.7
35.37
36.06
37.78
41.05
43.37
41.98
37.53
32.95
29.62
26.95
23.98
20.33
16.49
13.45
11.41
9.41
6.77
3.64
-0.01
-4.34
-8.67
-12.38
-16.5
-22.91
-31.37
-39.04
-43.96
-47.99
-54.86
-65.48
-75.15
-75.7
-62.8
-40.88
-18.77
-1.88
9.24
15.8
19.24
21.06
22.33
23.2
23.49
23.61
24.05
23.8
21.24
16.66
11.96
7.98
3.9
-0.7
-4.92
-8.28
-11.9
-17.06
-23.24
-29.04
-34.48
-40.92
-49.23
-58.39
-63.91
-59.29
-43.35
-23.37
-6.81
5.35
14.75
21.21
24.53
25.96
26.9
27.96
29.03
29.8
29.85
28.41
25.02
20.72
17.28
15.1
12.98
9.95
6.37
2.97
0.09
-2.31
-4.63
-7.54
-11.45
-16.06
-20.3
-23.12
-25.0
-27.21
-29.87
-32.34
-35.16
-40.2
-49.22
-61.42
-70.5
-67.96
-52.71
-32.88
-16.31
-4.15
6.09
16.03
24.74
30.3
33.01
35.34
38.22
40.54
41.77
41.94
40.34
36.81
33.09
30.68
28.89
26.37
23.3
20.61
18.68
17.3
15.6
12.93
9.92
7.4
4.69
0.79
-4.1
-9.23
-13.79
-17.53
-21.65
-27.09
-32.93
-38.24
-43.94
-51.57
-61.58
-71.64
-75.17
-65.98
-46.41
-26.22
-11.51
-0.18
11.05
21.1
27.52
30.2
30.78
30.97
32.01
33.89
34.96
33.58
30.37
27.59
26.39
25.71
23.98
20.82
17.11
14.04
12.03
10.32
7.81
4.12
-0.21
-4.21
-7.67
-11.83
-17.88
-25.01
-31.54
-37.28
-43.59
-52.45
-63.93
-72.7
-70.81
-56.44
-36.46
-18.59
-5.0
5.98
15.5
23.01
27.57
29.35
29.98
31.31
33.67
35.73
36.31
35.38
33.4
30.79
28.32
26.5
25.01
23.6
22.39
20.82
18.14
15.12
13.08
11.54
9.34
6.68
4.12
0.92
-3.81
-9.26
-13.66
-16.59
-19.8
-24.89
-31.01
-36.46
-41.38
-47.56
-56.32
-65.67
-69.08
-60.77
-42.84
-23.41
-8.2
2.82
11.78
19.34
24.66
27.7
29.77
31.9
34.04
35.74
36.04
34.39
31.89
30.22
29.28
27.57
24.52
21.37
19.23
17.64
15.7
13.23
10.16
6.55
2.84
-0.9
-5.15
-9.63
-13.26
-15.91
-18.95
-23.3
-28.29
-33.43
-39.84
-49.06
-59.8
-66.27
-62.23
-47.63
-29.08
-13.19
-1.76
6.59
12.7
16.86
20.06
23.2
25.82
27.73
29.38
30.42
29.85
27.92
25.65
23.52
21.69
20.4
19.38
18.04
16.44
15.1
13.77
11.9
9.71
7.53
5.02
1.95
-1.37
-4.83
-8.57
-12.38
-16.13
-19.89
-23.72
-27.95
-33.32
-39.85
-47.22
-55.71
-63.34
-63.97
-53.41
-35.9
-19.54
-7.8
0.99
8.72
15.37
19.88
21.75
21.82
21.64
22.44
24.39
25.63
23.7
19.06
14.8
12.25
9.98
6.68
2.75
-0.61
-2.76
-4.11
-5.66
-7.77
-9.8
-10.57
-9.08
-5.36
-0.95
2.99
6.93
10.52
11.21
7.31
-0.33
-9.16
-15.66
-17.23
-15.53
-15.36
-17.84
-17.73
-9.95
3.28
15.04
21.51
24.01
25.06
25.9
27.29
29.64
32.14
33.59
33.96
33.72
32.42
29.55
25.34
20.44
15.61
11.42
7.86
4.9
2.72
0.83
-1.81
-5.19
-8.31
-11.38
-15.98
-22.17
-27.7
-31.56
-35.74
-42.64
-51.25
-56.29
-52.17
-38.96
-22.94
-10.02
-0.9
6.27
11.63
14.43
15.55
16.57
18.31
21.13
24.66
27.11
27.06
25.01
22.12
19.49
17.93
17.19
16.42
15.37
13.98
11.85
8.91
5.9
3.41
0.97
-2.31
-6.55
-11.11
-15.81
-21.18
-27.71
-34.83
-41.17
-46.99
-55.12
-66.45
-75.54
-74.29
-60.64
-40.7
-22.2
-8.44
1.93
11.49
20.5
27.06
30.64
32.82
34.8
36.48
37.63
37.79
36.57
34.63
32.89
30.91
27.88
24.48
22.06
20.76
19.7
18.28
16.64
14.99
13.08
10.49
7.61
5.23
2.76
-1.34
-6.87
-11.91
-16.0
-20.62
-26.66
-33.37
-40.22
-48.46
-59.63
-72.11
-79.74
-75.88
-60.09
-39.62
-22.28
-9.54
1.67
12.84
22.61
29.6
33.55
34.95
35.47
37.04
39.27
40.01
38.81
37.08
35.32
32.98
30.01
26.99
24.5
22.6
20.52
17.39
13.73
10.46
7.0
2.45
-2.34
-6.34
-10.67
-17.01
-24.71
-31.92
-38.81
-47.33
-58.27
-69.32
-74.77
-68.92
-52.3
-32.58
-17.01
-6.01
3.52
11.89
17.31
20.23
22.53
24.27
25.12
25.98
26.23
23.65
18.17
12.04
6.82
2.67
-0.52
-3.1
-5.39
-7.32
-8.68
-9.18
-8.3
-5.62
-0.89
5.67
12.44
17.25
20.36
24.36
30.6
37.66
42.66
42.74
36.33
24.65
10.81
-3.69
-20.3
-38.87
-53.0
-54.57
-43.16
-27.1
-14.41
-6.15
1.17
9.65
17.73
22.75
24.25
23.87
23.51
24.46
26.41
27.09
24.91
21.27
18.37
16.41
14.3
11.52
8.54
6.48
6.07
7.05
8.79
10.88
13.04
15.07
16.9
18.22
18.51
17.39
15.11
13.13
13.64
17.56
21.98
21.98
15.89
6.48
-3.59
-14.49
-27.66
-43.63
-59.29
-67.38
-63.18
-50.19
-35.9
-24.28
-14.82
-5.85
2.59
8.59
11.38
12.88
14.7
16.66
18.21
18.94
18.22
15.95
12.97
10.4
8.51
6.4
3.56
1.2
0.41
0.3
-0.58
-2.2
-4.05
-6.77
-10.9
-14.74
-15.43
-12.47
-8.56
-8.03
-13.88
-23.69
-29.37
-24.35
-10.95
2.51
10.75
14.88
17.72
19.31
18.43
16.28
15.43
16.35
17.8
19.13
20.24
20.61
19.72
18.03
16.44
15.32
14.2
12.73
11.21
9.52
7.31
5.12
3.59
1.94
-0.8
-4.26
-7.96
-11.88
-15.28
-17.54
-20.07
-24.46
-29.97
-34.99
-39.32
-44.19
-51.41
-61.72
-71.0
-71.35
-59.5
-41.18
-24.28
-11.57
-1.55
7.76
16.87
24.21
27.97
28.69
28.6
29.05
30.15
31.24
30.74
27.62
23.5
20.95
19.66
16.92
12.18
8.01
6.11
4.88
1.83
-3.12
-7.34
-7.71
-3.04
3.83
7.43
5.55
1.98
1.43
4.68
9.97
15.04
16.84
13.15
5.42
-2.89
-10.6
-19.48
-31.47
-45.22
-54.53
-52.71
-40.56
-25.91
-14.51
-6.01
1.53
8.52
14.81
20.08
23.58
25.03
25.65
27.16
29.64
31.2
30.35
27.84
25.37
23.21
20.59
17.47
14.54
11.93
9.39
6.92
4.37
1.07
-2.85
-5.74
-6.8
-7.77
-10.46
-14.4
-18.27
-22.01
-26.01
-30.09
-33.98
-37.73
-41.84
-47.86
-57.11
-66.46
-68.26
-58.35
-41.6
-26.24
-15.44
-7.58
-0.91
4.67
8.48
10.11
9.95
8.92
8.38
9.66
12.59
15.91
19.55
24.99
33.17
43.11
51.62
54.9
52.29
46.84
40.07
29.86
15.3
-0.49
-13.38
-20.82
-23.41
-25.81
-31.87
-38.63
-40.62
-38.14
-35.49
-33.2
-27.92
-18.27
-7.09
2.0
8.19
12.77
16.67
20.24
23.87
26.96
27.85
25.98
22.97
20.7
19.28
17.35
13.94
9.75
6.17
2.87
-2.03
-8.78
-15.34
-20.6
-25.84
-33.27
-43.37
-51.9
-51.76
-40.71
-24.17
-8.55
3.82
12.83
18.88
23.0
25.97
28.18
30.45
33.0
34.94
36.01
36.51
35.54
32.38
28.92
27.18
26.27
24.71
22.75
20.8
18.46
15.9
13.59
11.44
9.4
7.65
5.62
2.88
0.29
-1.61
-3.84
-7.02
-10.21
-12.72
-15.18
-18.62
-23.18
-27.75
-31.31
-34.95
-41.23
-50.61
-59.04
-59.74
-49.27
-31.97
-15.59
-3.33
6.38
14.25
18.76
19.65
19.41
20.63
23.29
26.19
28.82
30.22
28.65
24.53
20.83
19.12
17.87
15.7
13.3
11.5
9.83
7.83
5.36
1.81
-2.68
-6.37
-8.66
-11.39
-15.95
-21.5
-26.91
-32.39
-39.39
-49.12
-59.17
-62.57
-54.68
-38.95
-22.68
-9.6
0.86
9.8
16.98
21.97
25.21
27.02
27.74
28.83
31.06
32.71
31.97
29.42
26.6
24.34
22.83
21.67
19.95
17.22
14.43
12.98
12.54
11.29
8.49
5.29
2.72
0.63
-1.62
-4.46
-7.85
-11.25
-14.41
-18.43
-24.14
-30.06
-34.7
-39.53
-47.09
-57.42
-66.83
-68.82
-59.02
-41.0
-23.24
-10.36
-1.05
6.94
14.26
20.5
24.96
27.63
29.51
31.69
34.23
36.09
36.02
34.07
31.7
30.19
29.41
28.29
26.27
23.79
21.69
20.41
19.33
17.23
13.94
10.72
8.03
5.23
2.36
-0.08
-2.69
-6.17
-9.76
-12.65
-15.7
-19.93
-24.97
-30.01
-35.2
-41.77
-50.95
-61.92
-69.54
-66.8
-52.48
-33.97
-19.18
-8.88
0.18
8.82
15.78
20.76
24.48
27.29
29.49
31.86
34.2
34.99
33.61
31.55
30.19
28.91
26.82
24.72
23.71
23.18
21.76
19.58
17.45
15.17
12.66
10.91
9.85
8.08
5.55
3.55
1.87
-0.98
-5.22
-9.76
-13.92
-17.89
-22.29
-27.27
-32.11
-36.78
-42.94
-52.08
-62.84
-69.57
-65.58
-50.5
-31.95
-16.98
-5.92
3.6
11.68
16.97
19.73
22.1
25.53
29.44
32.59
34.56
35.38
34.85
33.01
31.09
30.09
28.61
25.18
21.44
19.03
16.54
13.42
11.71
11.51
10.04
6.65
3.46
1.32
-1.09
-4.47
-7.85
-10.29
-12.13
-14.75
-19.19
-24.49
-28.89
-32.68
-37.8
-45.9
-56.29
-63.12
-58.42
-41.97
-23.05
-9.46
-0.84
6.23
12.63
17.33
19.86
21.16
22.74
25.03
26.9
27.63
27.85
27.48
25.55
22.59
20.09
18.19
16.47
15.06
13.38
10.39
7.14
6.1
7.28
8.52
8.43
6.62
2.31
-5.38
-15.94
-27.74
-39.99
-53.7
-68.53
-79.07
-78.31
-65.22
-45.76
-26.55
-10.23
3.2
14.28
23.53
30.77
35.3
37.22
37.4
36.68
35.79
34.96
33.2
29.74
25.67
22.34
19.71
17.6
16.48
16.24
15.94
15.12
13.9
12.74
12.16
11.73
10.29
7.67
5.01
2.72
-0.16
-4.1
-8.29
-12.24
-17.04
-23.63
-30.79
-37.19
-44.52
-55.96
-71.02
-82.9
-82.8
-68.38
-46.82
-27.59
-14.05
-3.38
7.52
18.12
25.88
30.1
32.51
34.94
38.08
41.19
42.41
41.04
38.58
36.72
35.71
35.0
33.97
32.16
30.06
28.4
26.68
23.96
20.75
18.19
16.36
14.66
12.45
9.31
5.96
3.53
1.3
-2.41
-7.36
-11.78
-15.47
-19.93
-25.94
-32.6
-38.72
-44.56
-51.58
-61.26
-73.0
-81.16
-77.48
-60.52
-38.85
-21.41
-9.06
1.88
12.96
22.79
29.73
33.63
35.72
37.27
38.91
40.77
42.22
42.07
40.24
38.34
37.12
35.11
31.66
28.64
27.32
26.2
23.57
20.09
17.22
15.14
12.98
10.1
6.8
3.53
0.2
-3.17
-6.04
-8.47
-11.58
-16.16
-21.46
-26.41
-30.95
-35.67
-41.59
-49.94
-59.24
-62.84
-54.74
-37.76
-20.48
-7.73
1.34
8.33
13.4
16.59
18.86
21.44
24.37
26.94
28.96
30.19
29.74
27.7
25.68
24.43
22.99
20.52
17.68
15.55
13.97
11.96
9.44
6.75
3.26
-1.3
-5.67
-9.12
-12.98
-18.27
-24.02
-29.12
-34.15
-40.38
-48.92
-59.89
-69.51
-70.47
-59.22
-40.77
-23.34
-10.57
-0.84
8.15
16.55
23.43
28.27
31.09
32.83
34.86
37.17
38.27
37.34
35.3
33.41
31.83
29.96
27.58
24.91
22.28
20.0
18.11
15.83
12.45
8.58
5.18
2.13
-1.19
-4.84
-8.33
-11.54
-15.16
-19.57
-23.76
-26.86
-29.73
-33.15
-36.17
-37.88
-39.21
-42.15
-48.38
-57.15
-62.81
-57.92
-41.66
-21.86
-6.81
1.98
8.05
14.11
19.44
22.54
24.26
26.47
29.29
31.6
32.98
33.38
32.14
29.05
25.64
23.4
21.32
17.71
13.25
9.74
7.29
5.14
3.64
3.27
3.02
1.79
0.1
-1.21
-2.53
-4.08
-5.03
-5.06
-5.04
-5.87
-7.48
-8.94
-9.73
-10.76
-12.75
-14.7
-15.87
-17.82
-22.78
-30.83
-38.3
-38.45
-27.47
-10.26
4.0
11.52
15.26
18.94
23.46
27.49
29.66
29.82
28.93
28.21
28.37
29.02
28.86
27.3
25.21
23.19
20.74
17.79
15.27
13.88
13.16
12.2
10.69
9.26
8.34
7.21
5.11
2.45
-0.07
-2.73
-5.88
-8.89
-11.31
-14.15
-18.59
-23.79
-27.69
-30.09
-33.57
-40.82
-50.62
-56.67
-52.55
-38.66
-22.06
-8.89
-0.13
6.11
11.27
15.31
17.73
19.21
20.95
22.89
24.42
25.65
26.4
25.95
24.54
23.13
21.83
19.89
17.53
15.87
14.54
12.09
9.06
6.97
5.55
4.01
2.87
1.92
0.06
-2.41
-4.52
-6.94
-10.59
-14.45
-17.34
-20.25
-24.7
-29.86
-33.85
-37.36
-43.02
-51.72
-60.51
-63.38
-55.61
-39.4
-22.83
-11.4
-3.67
3.69
11.11
17.14
20.92
22.6
23.24
24.44
26.63
28.61
29.08
28.07
26.57
25.24
23.89
22.08
19.94
18.04
16.79
16.08
15.2
13.42
10.94
8.65
6.62
4.47
2.73
1.71
0.03
-3.29
-7.16
-10.19
-12.49
-15.19
-19.27
-24.48
-29.74
-34.5
-39.46
-46.43
-56.11
-63.78
-61.33
-47.03
-28.42
-13.23
-2.86
4.81
11.42
17.23
21.67
24.35
25.58
26.19
27.76
31.16
34.48
34.96
32.76
30.27
28.45
26.38
23.58
20.76
18.6
17.32
16.59
15.45
12.89
9.0
4.92
1.61
-0.65
-2.31
-4.22
-6.35
-7.86
-9.02
-11.51
-16.04
-21.3
-25.96
-30.51
-36.9
-45.93
-53.81
-53.41
-41.9
-25.3
-12.01
-4.4
0.13
3.5
5.85
7.71
10.24
13.65
17.21
20.39
22.95
24.5
24.66
23.72
22.22
20.33
18.21
16.93
17.03
16.89
14.91
12.27
10.79
9.97
8.32
5.8
3.13
0.41
-2.59
-5.72
-8.87
-12.51
-17.2
-22.72
-28.46
-34.29
-40.31
-46.91
-55.38
-65.37
-71.39
-66.85
-52.1
-34.0
-18.47
-6.95
1.78
9.64
17.45
24.28
29.1
32.04
33.95
35.62
37.09
37.67
36.95
35.51
34.14
32.95
31.4
29.21
26.8
24.79
23.35
22.24
20.81
18.57
15.73
13.06
10.99
9.38
7.76
5.5
2.58
0.01
-1.87
-4.52
-8.71
-12.77
-15.53
-18.72
-24.33
-31.24
-37.1
-42.32
-49.77
-60.82
-71.98
-75.75
-67.02
-49.11
-30.6
-16.66
-6.52
2.67
12.44
21.57
27.72
30.38
31.41
33.02
35.89
38.61
39.18
37.68
35.77
34.3
33.06
31.91
30.4
27.93
24.94
22.43
20.25
17.66
15.06
13.17
11.19
8.21
5.22
3.41
2.01
-0.46
-4.28
-8.46
-11.92
-14.87
-18.69
-24.08
-30.28
-36.34
-42.46
-50.06
-59.94
-69.2
-71.09
-61.23
-43.28
-25.42
-12.09
-2.17
6.53
14.42
20.81
25.26
28.12
30.46
33.08
35.69
37.19
36.57
34.05
31.47
30.18
28.77
25.31
20.96
18.19
17.04
15.6
12.75
9.25
6.29
3.26
-1.46
-7.52
-12.99
-16.59
-18.33
-19.36
-21.08
-23.67
-26.94
-32.62
-42.04
-51.15
-52.28
-42.68
-27.88
-14.4
-3.59
5.48
12.03
15.61
18.1
21.04
24.16
27.34
31.16
34.86
36.4
35.16
32.98
31.43
30.15
28.42
26.53
24.71
22.76
20.63
18.68
17.31
16.08
13.7
9.99
6.37
3.26
-0.22
-4.19
-7.87
-11.03
-14.38
-18.92
-24.75
-31.09
-37.3
-43.73
-51.93
-63.2
-74.71
-78.73
-69.92
-51.58
-32.24
-17.03
-5.11
5.67
15.22
22.65
27.8
30.9
33.02
35.84
39.13
41.13
41.07
39.33
36.6
34.11
32.53
31.01
28.83
26.15
23.34
20.81
18.88
17.1
15.13
13.2
11.07
8.11
4.82
2.35
0.6
-1.69
-5.47
-10.55
-15.8
-20.55
-25.46
-31.09
-36.78
-42.11
-48.03
-55.99
-66.31
-75.21
-75.02
-62.06
-42.04
-23.8
-10.67
-0.69
8.78
18.02
25.11
29.03
31.35
33.6
35.6
37.37
38.73
38.27
35.88
33.67
32.56
31.1
28.43
25.59
23.89
23.48
23.18
21.37
17.49
12.84
9.22
6.7
3.75
-0.59
-5.81
-10.95
-15.71
-20.74
-26.69
-32.87
-38.45
-44.71
-53.66
-63.05
-65.51
-56.12
-38.68
-20.96
-7.03
3.12
10.53
16.3
21.02
24.52
26.98
29.09
31.6
34.69
37.19
37.36
34.94
31.18
27.7
25.49
23.96
21.83
19.21
17.02
15.16
13.32
11.51
9.27
6.3
3.41
1.36
-0.27
-2.5
-5.99
-10.14
-13.64
-16.85
-21.46
-27.84
-34.73
-41.07
-46.95
-54.31
-65.02
-75.39
-76.65
-65.06
-46.46
-28.42
-13.85
-2.82
5.87
13.85
20.67
24.73
26.82
28.81
31.11
33.81
36.72
37.68
35.0
30.67
27.72
26.42
25.49
24.6
23.92
23.09
21.78
20.3
19.1
17.81
15.39
11.54
7.39
4.07
1.08
-3.11
-8.89
-14.75
-19.66
-24.58
-30.37
-36.18
-41.44
-46.84
-53.06
-61.13
-71.31
-78.65
-75.13
-59.48
-39.57
-23.21
-11.67
-2.72
5.1
11.79
16.77
19.75
21.47
23.5
27.15
31.83
34.91
34.66
32.8
32.55
34.46
36.16
35.57
32.67
28.56
24.18
20.6
19.04
19.23
19.28
17.85
15.31
12.39
9.19
5.57
1.55
-2.62
-6.79
-11.37
-16.99
-23.61
-30.04
-35.26
-40.72
-49.71
-61.8
-69.62
-65.16
-48.7
-28.55
-12.43
-1.84
5.87
12.66
18.28
22.13
24.87
27.32
29.87
32.73
35.33
36.14
34.52
31.92
29.91
28.37
26.62
24.73
22.89
20.99
19.15
17.37
14.89
11.62
8.8
6.92
5.14
3.11
0.92
-2.3
-6.95
-11.72
-15.78
-20.16
-25.67
-31.83
-37.76
-43.35
-50.4
-60.97
-71.67
-73.73
-62.66
-43.63
-25.09
-11.27
-1.58
6.18
13.25
19.38
23.87
26.73
29.14
32.34
35.85
37.81
37.58
36.01
33.78
31.06
28.36
26.31
24.86
23.62
22.21
20.42
18.45
16.45
13.98
10.75
7.36
4.5
2.12
-0.29
-3.4
-7.54
-11.89
-15.44
-18.94
-24.1
-30.57
-36.26
-41.21
-48.66
-60.58
-72.55
-75.21
-63.75
-43.73
-24.87
-11.48
-1.79
6.73
14.83
21.96
27.06
29.97
31.96
34.44
37.5
39.73
39.52
36.81
33.31
30.58
28.78
27.23
25.4
23.28
21.26
19.56
17.85
16.16
15.0
13.68
10.56
6.13
2.79
0.8
-1.93
-5.94
-9.89
-13.69
-18.47
-24.17
-29.48
-34.29
-40.08
-47.96
-57.74
-66.71
-68.68
-58.62
-39.61
-20.53
-6.53
3.53
11.49
17.14
20.39
22.73
25.69
29.18
32.23
34.5
35.83
35.33
32.83
30.14
28.81
27.93
26.26
24.49
23.28
21.64
18.71
15.2
12.06
9.33
6.86
4.4
1.31
-2.58
-6.47
-9.88
-13.76
-19.44
-26.54
-33.17
-38.6
-44.87
-54.72
-66.8
-73.84
-68.69
-52.65
-33.9
-18.28
-6.39
2.92
10.58
16.86
21.37
24.59
28.1
32.19
35.81
38.28
39.02
37.43
34.51
32.14
30.72
29.22
26.95
24.2
21.76
19.92
18.01
15.5
12.61
9.74
7.27
4.86
1.36
-3.45
-8.27
-12.48
-17.06
-22.74
-29.05
-35.35
-41.64
-49.07
-59.14
-70.24
-75.45
-67.95
-49.42
-28.87
-13.01
-1.93
6.76
14.1
19.89
23.86
26.63
29.43
32.77
36.18
38.87
39.67
37.89
34.66
31.88
29.89
27.73
25.11
22.78
21.24
19.95
18.0
15.36
12.72
10.31
7.82
5.38
3.48
1.93
-0.22
-3.65
-8.19
-12.84
-17.16
-22.08
-28.16
-34.2
-39.58
-46.38
-56.7
-67.82
-72.13
-64.04
-46.02
-25.88
-9.56
1.46
8.46
13.76
18.81
22.82
25.04
27.1
30.73
34.67
36.53
35.66
32.73
28.88
25.93
24.85
24.46
23.28
21.42
19.41
17.07
14.35
11.75
9.28
6.52
3.25
-0.94
-6.55
-12.95
-18.74
-23.83
-29.1
-34.67
-41.12
-50.8
-63.54
-72.58
-69.74
-54.6
-34.55
-16.87
-3.72
6.21
14.0
19.72
23.79
27.09
29.99
32.65
35.4
37.7
38.44
37.36
35.02
32.23
29.83
28.11
26.44
24.43
22.24
20.01
17.74
15.19
12.15
9.34
7.58
5.83
2.54
-2.07
-6.78
-11.1
-15.47
-20.9
-27.3
-33.07
-38.18
-45.14
-55.35
-66.15
-71.38
-65.5
-49.37
-30.4
-14.93
-3.69
4.85
11.61
17.31
22.14
25.49
27.4
29.3
32.06
34.55
34.74
32.31
29.16
26.98
25.59
24.25
22.74
20.79
18.37
16.52
15.5
13.73
10.62
7.72
5.66
3.37
0.43
-2.68
-5.81
-9.3
-13.56
-18.51
-23.41
-27.94
-33.5
-41.93
-52.4
-59.36
-55.9
-41.22
-22.38
-7.06
2.87
9.36
13.12
14.2
14.75
17.03
20.43
23.2
25.28
26.91
27.16
25.71
23.63
21.78
19.89
17.62
15.43
13.96
12.56
9.54
4.47
-1.04
-5.64
-9.55
-13.79
-19.51
-26.7
-33.39
-38.35
-43.84
-52.98
-63.78
-68.6
-61.54
-45.1
-27.09
-12.72
-2.09
6.65
14.39
20.68
25.21
28.32
30.42
31.94
33.62
35.4
35.84
34.06
31.33
29.35
28.13
26.41
23.51
20.27
18.13
17.21
15.93
13.15
9.53
6.04
2.86
-0.08
-3.09
-6.64
-10.51
-14.22
-18.52
-24.37
-30.92
-36.74
-42.49
-50.75
-62.43
-73.32
-75.66
-65.59
-47.6
-29.88
-16.77
-7.1
1.93
11.19
19.34
24.87
27.82
29.63
31.99
35.42
38.48
38.95
36.45
33.2
31.63
31.22
29.5
26.14
23.47
22.4
21.37
19.53
17.52
15.23
12.15
9.19
7.35
5.64
2.66
-1.07
-4.38
-7.15
-9.86
-13.27
-18.45
-24.98
-30.85
-35.67
-42.14
-52.48
-64.17
-69.95
-63.67
-47.15
-28.65
-13.97
-2.91
6.32
14.04
20.25
25.15
28.56
30.73
32.65
34.75
36.2
35.76
33.28
30.31
28.33
26.96
25.11
22.78
20.55
18.46
16.19
13.69
11.07
7.96
4.09
-0.0
-3.75
-7.49
-12.07
-17.93
-24.27
-29.67
-34.52
-41.39
-51.89
-63.18
-68.01
-60.62
-43.64
-25.46
-11.09
0.02
9.53
17.73
24.06
28.19
31.0
33.61
35.98
37.69
38.5
37.92
35.79
33.27
31.54
30.22
28.17
25.4
23.0
21.31
19.5
17.12
14.82
13.07
11.16
8.23
4.51
1.23
-0.83
-2.66
-5.83
-9.96
-13.55
-16.86
-21.53
-27.66
-33.5
-38.22
-43.64
-52.41
-63.58
-70.8
-66.98
-51.87
-32.93
-17.58
-6.99
1.8
10.51
18.34
23.93
27.02
28.72
30.92
34.46
37.57
37.77
35.32
32.39
29.83
27.59
26.08
24.99
23.08
20.24
17.51
15.25
13.08
10.81
8.46
5.99
3.26
0.09
-3.47
-6.7
-9.04
-11.39
-15.18
-20.35
-25.62
-30.4
-35.16
-41.37
-50.39
-59.62
-61.6
-51.79
-34.55
-17.72
-4.95
4.22
10.96
15.77
18.81
20.77
22.73
25.16
27.74
29.8
30.47
29.5
27.44
24.76
21.87
19.47
17.69
15.99
13.99
11.96
10.34
8.77
6.33
2.39
-2.53
-7.05
-10.58
-14.46
-19.88
-26.09
-31.8
-37.13
-43.57
-52.7
-63.39
-69.38
-63.9
-47.76
-28.85
-13.66
-2.73
6.1
13.74
19.63
23.5
26.12
28.23
30.12
31.98
33.34
33.28
31.86
30.0
28.27
26.86
25.86
24.67
22.5
19.93
18.11
16.85
15.13
12.64
9.53
6.46
4.32
2.54
-0.59
-4.95
-9.03
-12.94
-18.03
-24.3
-30.4
-35.55
-40.98
-49.3
-60.74
-69.93
-69.37
-57.13
-39.0
-22.52
-10.66
-1.67
6.51
13.64
18.8
22.56
25.93
28.87
31.3
33.65
35.26
34.49
31.67
29.03
27.56
26.41
25.29
24.59
23.76
22.01
19.55
16.8
13.63
10.14
7.05
4.67
2.34
-0.78
-4.81
-8.98
-12.76
-16.95
-22.46
-28.2
-32.77
-37.48
-45.07
-55.94
-66.75
-71.19
-64.1
-47.07
-28.09
-13.62
-3.47
5.5
13.4
18.23
20.61
23.39
27.25
30.75
33.45
35.39
35.37
32.64
28.65
25.51
23.47
21.07
17.5
13.57
9.97
6.08
1.25
-4.02
-9.09
-14.32
-20.57
-27.68
-34.66
-41.67
-50.27
-61.24
-73.31
-82.96
-85.54
-79.55
-68.93
-57.83
-46.39
-34.2
-23.24
-14.4
-5.49
5.87
19.44
33.16
45.48
55.78
63.08
66.54
67.15
66.8
65.95
64.0
60.85
57.0
52.73
47.72
41.52
34.34
27.13
20.2
12.6
3.56
-5.94
-14.29
-21.75
-30.88
-43.77
-58.52
-68.37
-66.31
-52.37
-33.69
-16.84
-3.05
8.83
18.59
25.2
28.94
31.59
34.36
37.15
39.83
42.17
42.92
41.24
38.42
35.82
33.08
30.05
27.63
25.77
23.6
21.27
18.9
15.44
10.53
5.2
0.23
-4.1
-7.83
-12.33
-19.18
-27.14
-33.71
-39.79
-48.9
-61.82
-73.65
-76.72
-67.08
-48.51
-28.85
-12.78
-0.16
10.28
18.41
23.99
28.14
31.94
35.19
37.93
40.74
42.51
41.2
37.23
33.21
30.64
28.78
26.37
23.41
20.85
18.27
14.13
8.41
2.72
-2.25
-7.48
-14.03
-21.79
-29.62
-36.94
-44.75
-54.87
-67.38
-77.59
-77.39
-63.62
-42.92
-24.05
-9.3
3.44
14.52
22.52
27.49
31.16
34.52
37.3
39.7
42.17
43.49
42.14
39.31
37.33
36.28
34.81
32.71
30.39
27.74
24.39
20.3
15.95
12.17
8.94
5.27
0.46
-5.34
-11.38
-16.71
-21.2
-25.96
-31.68
-37.93
-45.31
-56.75
-73.94
-92.57
-102.79
-96.41
-74.44
-46.66
-23.35
-7.77
3.29
13.42
22.75
29.93
35.0
38.97
42.42
45.47
47.7
48.29
47.25
45.23
42.73
40.32
38.39
36.6
34.81
33.71
33.59
33.18
30.78
25.83
19.3
12.71
6.88
1.5
-4.22
-10.19
-15.35
-19.0
-21.99
-25.89
-30.92
-35.78
-39.77
-44.2
-51.27
-61.3
-69.73
-68.72
-55.06
-34.7
-16.12
-2.07
9.09
18.1
24.21
27.64
29.85
31.72
33.28
34.88
36.98
38.57
37.79
34.46
30.61
27.74
25.04
21.45
18.12
16.47
15.39
13.01
9.45
6.0
3.18
0.35
-3.2
-7.25
-11.26
-15.69
-21.41
-27.96
-33.98
-39.08
-44.36
-51.75
-61.88
-70.86
-71.16
-59.1
-39.9
-22.06
-9.0
1.18
10.12
17.19
21.78
24.55
26.47
28.36
31.07
34.14
35.57
34.07
30.86
28.07
26.47
25.19
23.09
20.36
18.38
17.28
15.43
12.19
8.71
5.63
2.71
0.08
-2.78
-6.72
-10.85
-14.01
-17.58
-23.1
-29.12
-33.87
-38.33
-44.96
-55.04
-66.17
-71.32
-64.27
-46.99
-27.68
-12.28
-1.33
6.88
13.41
18.43
22.05
24.43
25.92
27.7
30.55
33.12
33.54
31.84
29.23
26.84
25.31
23.83
21.38
18.85
17.41
16.13
13.85
11.04
8.3
5.29
1.71
-2.35
-6.75
-11.27
-15.74
-20.35
-25.48
-31.31
-37.43
-43.53
-49.8
-56.09
-61.38
-63.97
-61.7
-55.28
-51.06
-54.74
-63.57
-70.54
-72.55
-69.84
-64.54
-61.44
-62.59
-62.2
-52.78
-33.75
-12.53
0.04
-1.03
-7.67
-5.95
10.57
40.68
84.61
142.46
204.3
251.64
271.77
264.82
237.23
197.19
156.1
122.97
96.2
68.12
35.78
2.06
-30.15
-59.23
-81.65
-92.72
-92.69
-88.08
-84.11
-80.25
-74.11
-62.07
-37.55
1.3
44.63
80.16
106.01
128.52
149.63
159.08
140.02
86.11
12.76
-52.1
-87.51
-90.79
-75.06
-56.82
-43.27
-31.02
-14.82
5.69
27.21
45.94
58.81
64.57
64.69
61.33
53.43
37.96
14.65
-13.32
-41.65
-66.13
-83.77
-94.24
-99.16
-100.29
-99.61
-99.25
-99.96
-100.22
-98.31
-94.68
-90.88
-86.82
-81.44
-75.11
-69.37
-64.37
-57.32
-42.82
-16.92
17.67
53.1
82.72
103.6
114.99
117.37
113.03
105.64
97.79
89.21
78.98
68.32
58.24
47.3
34.11
19.68
5.88
-6.84
-19.34
-31.41
-40.82
-46.45
-50.54
-56.07
-63.13
-69.84
-75.75
-82.24
-90.71
-101.58
-112.69
-117.55
-109.48
-89.55
-66.03
-45.29
-27.87
-12.91
-0.86
8.43
16.05
22.14
26.41
29.54
32.25
33.86
32.83
28.76
23.43
19.11
16.02
13.15
10.66
9.77
10.33
10.34
8.82
7.18
6.66
6.49
5.5
3.26
0.14
-2.99
-6.22
-11.13
-18.07
-25.35
-31.91
-38.59
-47.32
-59.07
-69.86
-71.04
-58.45
-38.67
-21.43
-9.72
-0.99
6.02
10.0
10.27
7.78
3.23
-3.17
-9.98
-15.37
-19.99
-26.01
-33.32
-39.4
-43.0
-45.46
-48.35
-51.14
-52.48
-53.13
-55.92
-61.96
-68.69
-73.78
-78.88
-86.81
-96.68
-103.11
-98.57
-79.57
-52.32
-25.99
-0.93
27.47
56.66
80.25
99.74
122.76
149.02
164.31
154.01
119.56
74.09
27.92
-11.81
-36.52
-42.32
-33.99
-17.52
4.21
27.7
47.72
61.03
67.48
67.38
60.93
50.27
38.5
26.08
11.23
-6.36
-22.63
-29.58
-22.06
-4.15
15.48
32.88
48.21
59.89
66.02
67.83
67.54
66.38
65.7
66.2
66.11
63.14
57.51
51.33
46.09
41.78
38.01
34.59
31.58
30.11
31.52
34.06
33.71
30.38
28.51
30.45
34.05
36.14
35.46
35.82
44.84
61.29
67.73
45.34
-7.87
-77.66
-144.33
-190.22
-204.11
-185.47
-146.21
-103.21
-65.16
-32.22
-9.08
-5.25
-18.82
-34.29
-39.58
-34.26
-22.55
-8.77
1.19
2.18
-5.21
-14.83
-21.3
-24.18
-25.18
-25.38
-26.49
-29.82
-33.3
-33.47
-30.36
-27.96
-30.73
-39.93
-50.52
-52.92
-41.45
-20.04
2.64
21.09
34.81
45.77
55.07
61.68
65.1
67.78
72.29
78.18
83.38
86.47
86.26
82.22
75.61
68.18
60.12
51.37
42.88
34.92
26.31
16.81
7.86
-0.06
-8.36
-17.52
-25.87
-32.52
-39.55
-49.97
-63.53
-74.26
-73.68
-58.93
-36.08
-13.59
4.52
17.95
26.73
31.53
34.43
37.01
39.44
42.04
44.89
46.41
45.05
41.48
37.41
33.52
29.36
24.44
19.09
14.24
10.02
5.34
-1.04
-9.01
-17.14
-24.88
-34.04
-46.89
-62.23
-72.88
-70.56
-54.59
-32.31
-11.02
6.19
18.36
25.78
30.05
32.61
34.51
37.06
40.54
43.66
45.41
45.5
43.12
38.19
32.63
27.88
23.21
17.67
11.71
6.37
1.58
-4.43
-13.08
-22.84
-31.33
-38.96
-48.38
-61.09
-74.04
-78.97
-69.23
-47.78
-24.2
-4.95
9.45
20.06
26.88
30.32
32.41
34.85
37.5
40.0
42.47
43.87
42.67
38.85
33.84
28.93
24.35
19.33
13.27
7.01
2.08
-1.7
-6.38
-13.03
-20.26
-26.82
-33.85
-43.3
-55.39
-66.88
-70.88
-61.72
-41.67
-19.33
-1.08
12.22
21.13
25.41
26.23
26.75
28.95
31.82
33.89
35.12
35.24
33.32
29.76
25.98
22.2
17.81
13.07
8.78
5.04
1.23
-3.6
-10.02
-17.36
-24.48
-31.22
-38.41
-47.66
-59.36
-68.39
-66.22
-50.82
-29.75
-11.12
2.95
13.17
19.55
22.62
24.2
25.86
27.98
30.05
31.61
32.64
32.45
29.79
24.86
19.82
16.08
12.77
8.48
3.5
-0.83
-4.77
-9.95
-16.55
-22.97
-28.62
-34.99
-43.72
-54.63
-64.02
-65.34
-54.68
-35.77
-16.49
-1.18
10.6
19.49
24.67
26.34
26.76
28.08
30.46
32.94
34.99
35.85
33.96
29.3
24.2
20.36
17.25
13.84
9.66
4.72
-0.35
-5.04
-9.85
-15.63
-22.09
-28.1
-33.67
-40.92
-51.55
-62.84
-67.67
-60.3
-42.2
-20.87
-3.06
9.37
17.23
20.93
21.4
21.61
23.94
27.65
30.65
32.11
32.17
30.74
27.84
24.0
19.71
14.98
9.55
3.99
-0.34
-3.36
-7.13
-12.92
-19.2
-24.63
-30.56
-38.59
-48.38
-57.62
-61.21
-53.73
-35.97
-15.51
0.8
11.52
17.95
20.87
21.16
21.05
22.47
25.05
27.72
29.98
30.45
27.56
22.38
17.71
14.42
11.16
6.98
2.65
-0.64
-3.47
-7.75
-14.17
-21.49
-28.37
-35.07
-43.37
-53.75
-61.19
-57.92
-42.71
-22.81
-5.28
8.18
17.51
22.02
22.98
23.5
25.21
27.59
30.12
32.28
32.85
31.07
27.54
23.01
17.74
12.24
7.48
3.63
-0.56
-6.11
-12.16
-17.59
-23.44
-31.78
-42.83
-53.09
-55.83
-46.19
-27.48
-8.73
4.95
14.39
20.49
22.69
22.36
22.49
24.37
27.11
29.29
29.92
28.58
25.33
20.82
15.85
10.84
6.18
2.39
-1.29
-6.51
-13.13
-19.41
-25.02
-31.63
-40.98
-52.68
-61.33
-58.96
-43.76
-22.71
-3.74
10.13
18.77
22.7
23.65
24.58
27.21
30.64
33.56
35.81
36.85
35.51
32.07
28.32
25.39
22.95
20.31
17.57
15.04
12.08
7.78
2.33
-2.9
-6.67
-9.7
-14.54
-21.8
-28.49
-32.81
-37.46
-45.84
-57.71
-68.67
-71.62
-61.65
-41.42
-19.14
-1.19
10.83
17.7
20.86
22.56
24.99
28.44
31.42
33.19
34.4
35.01
33.9
30.92
27.47
24.69
22.13
19.06
16.1
14.09
12.03
8.45
4.02
0.15
-3.92
-9.16
-14.42
-18.71
-22.9
-28.08
-35.1
-43.76
-49.59
-45.64
-30.69
-11.5
4.26
13.86
17.63
16.5
13.19
11.71
13.67
17.3
20.64
23.1
23.89
21.96
17.93
13.81
10.48
6.98
2.55
-2.12
-5.98
-9.64
-14.6
-20.64
-26.08
-30.83
-36.84
-45.73
-56.57
-64.26
-61.65
-46.8
-26.23
-8.18
4.54
13.2
18.65
21.19
22.18
23.38
25.42
28.2
31.23
33.28
32.91
29.98
25.89
22.16
18.97
15.33
10.72
6.08
2.2
-2.18
-8.71
-16.68
-24.24
-31.15
-39.04
-49.66
-62.03
-70.23
-66.77
-50.54
-28.87
-9.89
4.09
14.53
22.08
26.59
29.06
31.05
32.94
34.51
36.08
37.63
37.83
35.23
30.28
24.89
20.08
15.18
9.69
4.33
-0.5
-5.79
-12.24
-19.11
-25.94
-34.04
-44.97
-57.41
-65.59
-62.57
-47.17
-25.88
-6.43
8.15
18.13
24.04
26.91
29.08
32.16
35.41
37.33
37.93
38.05
37.34
34.19
28.17
21.12
15.0
9.69
3.9
-2.65
-9.08
-15.21
-22.05
-30.95
-42.51
-54.29
-59.33
-51.61
-33.41
-12.89
4.32
16.78
23.93
26.11
26.13
27.38
30.8
35.23
39.17
41.27
40.33
36.6
32.05
28.46
25.75
23.01
19.94
16.76
13.34
9.3
4.58
-0.56
-6.09
-12.0
-18.08
-24.11
-29.89
-35.47
-42.21
-52.31
-65.03
-73.59
-69.72
-52.4
-29.5
-9.81
4.12
14.05
20.58
23.32
24.44
27.15
31.12
34.06
35.89
37.16
36.77
34.01
29.77
25.41
21.79
18.68
14.78
10.27
7.22
5.58
1.92
-5.25
-12.94
-18.57
-24.14
-32.65
-43.45
-52.12
-53.01
-43.35
-26.49
-9.17
4.17
12.55
16.17
16.14
15.15
15.92
19.2
23.39
26.18
26.41
24.49
20.99
16.06
10.38
5.12
0.17
-5.27
-10.96
-16.68
-23.64
-31.92
-39.52
-46.34
-55.17
-66.92
-76.22
-73.88
-55.5
-27.49
-1.65
15.82
26.29
32.11
34.21
34.8
36.73
40.01
42.85
44.58
44.91
43.25
40.21
36.81
32.49
26.99
22.0
18.16
13.63
7.72
2.26
-2.21
-7.77
-15.16
-22.63
-29.22
-36.05
-44.64
-55.93
-68.13
-74.59
-68.47
-50.73
-29.33
-10.56
4.47
16.24
24.59
29.63
32.44
34.76
37.91
41.29
43.35
43.71
42.67
39.92
35.8
32.1
30.42
29.96
28.4
25.13
21.88
19.72
17.69
14.94
11.68
8.29
4.75
0.81
-3.49
-7.6
-11.45
-15.75
-21.03
-26.97
-32.93
-38.47
-44.38
-52.8
-64.08
-73.28
-72.71
-59.51
-38.88
-18.66
-2.62
9.43
18.1
23.58
26.94
29.75
32.31
34.18
35.92
37.82
38.15
35.59
31.82
29.18
27.47
25.15
22.25
19.77
17.77
15.72
13.52
10.79
6.86
2.16
-2.01
-5.36
-8.96
-13.74
-19.05
-23.98
-29.55
-37.3
-46.5
-53.82
-54.96
-47.13
-32.11
-15.78
-2.69
6.67
12.82
15.4
15.57
16.62
20.11
24.07
26.29
26.72
26.15
24.89
23.11
21.08
18.98
16.88
14.64
12.23
10.22
8.9
7.18
3.74
-0.89
-5.02
-8.21
-11.79
-16.69
-22.02
-26.88
-32.09
-39.12
-48.29
-57.56
-61.3
-54.08
-38.12
-21.79
-9.82
-0.66
7.24
12.98
16.2
18.28
20.41
22.9
25.59
28.01
29.46
29.23
27.14
24.22
22.01
20.53
18.52
16.23
15.06
14.63
13.2
10.79
8.89
7.49
5.4
2.74
0.21
-2.26
-4.55
-6.17
-8.01
-11.34
-15.56
-19.77
-24.41
-29.32
-33.34
-36.87
-42.44
-51.46
-60.31
-61.56
-51.67
-35.51
-20.25
-8.6
-0.02
6.39
11.54
15.73
18.73
20.91
22.71
24.32
26.35
28.54
28.94
26.63
23.52
21.75
20.97
19.91
18.57
17.44
16.35
14.85
12.67
10.04
7.86
6.52
5.31
3.84
2.33
0.07
-3.74
-8.04
-11.0
-12.45
-14.1
-17.59
-22.48
-26.73
-29.86
-34.22
-42.25
-52.28
-57.68
-52.45
-38.3
-22.83
-10.96
-2.09
5.07
9.97
12.55
14.27
16.18
18.48
21.26
23.88
25.1
24.66
23.27
21.5
19.84
18.64
17.44
15.69
13.96
13.17
12.83
11.23
7.87
4.42
2.08
-0.15
-3.22
-6.35
-8.96
-11.85
-15.96
-21.06
-26.14
-30.7
-35.58
-42.25
-50.72
-57.51
-56.7
-45.56
-28.68
-13.67
-3.76
2.92
8.55
13.29
16.71
19.17
21.15
22.82
24.56
26.85
28.89
28.76
26.04
22.98
21.69
21.48
20.34
18.1
16.42
15.78
14.74
12.48
9.78
7.33
5.06
2.67
-0.37
-4.19
-8.0
-11.4
-15.47
-20.83
-26.27
-30.83
-36.07
-44.63
-56.16
-64.79
-63.08
-50.02
-32.56
-17.93
-7.53
0.47
7.07
12.46
16.99
20.81
23.93
26.9
30.27
33.24
34.09
32.33
29.82
28.54
28.09
26.62
23.92
21.71
20.87
20.37
19.06
16.57
12.9
9.18
6.82
4.88
1.25
-3.64
-7.72
-10.94
-15.12
-20.94
-27.41
-33.57
-39.77
-47.9
-59.01
-69.4
-71.32
-60.6
-41.73
-22.9
-8.64
1.5
9.51
15.94
20.35
23.42
26.84
30.71
33.95
36.39
38.24
38.43
36.2
33.06
30.75
28.89
26.41
23.82
21.89
19.67
16.2
12.5
9.37
5.64
0.98
-3.06
-6.64
-11.55
-17.61
-23.25
-28.6
-35.32
-44.47
-55.06
-62.48
-60.5
-47.52
-28.78
-11.1
2.19
11.02
16.71
20.51
23.01
25.11
28.41
33.25
37.8
40.29
40.3
38.18
35.11
32.71
31.14
29.17
26.57
24.45
23.15
21.61
19.11
15.88
12.36
8.74
5.26
1.88
-1.86
-6.07
-10.13
-13.85
-18.29
-24.55
-32.22
-39.78
-46.9
-55.36
-66.99
-80.03
-87.63
-82.73
-65.79
-44.89
-26.87
-12.25
0.81
12.09
20.76
27.22
32.13
35.72
38.98
43.16
47.28
48.76
46.84
43.5
40.74
38.36
35.81
34.18
33.9
32.85
29.77
26.38
23.94
21.44
18.36
15.15
11.64
7.64
3.74
-0.21
-4.8
-9.45
-13.64
-18.59
-25.5
-33.35
-40.21
-46.3
-54.22
-66.33
-80.94
-90.37
-85.96
-67.35
-43.7
-23.67
-8.66
3.55
14.13
22.86
29.17
33.43
37.29
41.95
46.5
49.24
49.44
47.3
43.84
40.82
39.0
37.33
34.83
32.16
30.09
28.28
25.78
22.11
17.82
14.02
10.98
7.94
4.32
0.07
-4.82
-10.01
-14.86
-19.81
-26.16
-33.82
-41.22
-47.97
-56.24
-68.11
-80.88
-86.69
-79.41
-60.88
-38.58
-18.96
-3.81
8.14
17.6
24.22
28.76
32.96
37.15
40.78
43.78
45.71
45.76
44.09
41.25
37.56
33.88
30.93
28.12
25.09
22.52
20.12
16.83
12.89
8.86
4.16
-1.19
-6.04
-10.21
-15.13
-21.73
-29.29
-36.69
-44.24
-53.55
-65.75
-78.42
-84.6
-78.1
-60.5
-39.7
-22.21
-10.07
-2.41
2.76
6.01
5.79
1.12
-6.13
-11.78
-12.58
-10.61
-12.22
-19.07
-24.44
-22.25
-14.43
-6.62
-3.09
-6.1
-14.01
-21.09
-23.13
-20.9
-17.42
-13.93
-9.05
-1.26
8.25
17.09
24.71
31.35
36.41
40.09
43.49
46.08
46.28
44.41
41.94
38.42
31.77
20.62
6.51
-3.81
-1.44
15.3
38.0
57.1
68.95
73.25
70.07
61.64
52.63
46.57
43.51
41.37
38.65
35.37
31.41
25.64
18.29
12.05
8.81
8.32
10.49
14.86
18.73
20.08
20.18
20.7
21.65
23.15
25.65
28.58
30.74
31.25
29.56
25.43
18.94
10.46
0.63
-10.52
-22.92
-34.65
-43.41
-50.17
-58.61
-70.22
-81.2
-84.03
-74.17
-55.83
-37.96
-25.59
-17.76
-12.11
-7.4
-2.84
1.73
5.71
9.06
12.91
17.41
20.66
21.08
19.39
17.28
15.67
14.51
13.27
11.72
10.03
7.95
4.88
1.26
-1.88
-4.62
-7.76
-11.12
-13.97
-16.64
-20.06
-24.29
-28.47
-32.15
-36.34
-43.02
-52.08
-58.45
-55.67
-43.07
-26.71
-12.44
-1.66
6.29
11.49
14.33
16.13
18.07
20.47
23.35
26.29
28.11
27.78
25.43
22.28
19.81
18.53
17.48
15.81
13.93
12.47
11.2
9.83
8.33
6.33
3.64
0.8
-1.89
-4.71
-7.36
-9.42
-11.47
-14.27
-17.82
-22.14
-27.09
-31.79
-36.03
-41.62
-50.57
-61.26
-67.29
-62.46
-47.55
-29.73
-15.17
-5.2
1.65
7.1
12.07
16.44
19.84
22.31
24.15
25.74
27.27
28.11
27.4
25.29
22.78
20.57
18.54
16.34
14.34
12.93
11.44
9.27
7.09
5.3
3.27
0.89
-1.0
-2.25
-3.96
-6.79
-9.56
-11.01
-12.15
-14.81
-18.99
-23.02
-26.0
-29.32
-35.86
-46.36
-55.92
-56.68
-46.04
-29.61
-14.83
-4.51
2.49
7.84
12.49
16.57
19.9
22.41
24.49
26.44
27.91
28.1
26.78
24.52
22.18
20.3
18.78
17.31
15.95
14.65
13.07
11.12
9.28
7.96
6.94
5.35
2.4
-1.7
-5.94
-9.83
-13.84
-18.31
-22.9
-27.42
-32.47
-39.3
-48.41
-57.0
-59.47
-52.17
-37.38
-21.39
-9.1
-1.18
4.24
8.48
11.85
14.75
17.79
21.16
24.57
27.38
28.87
28.64
26.85
24.35
22.4
21.48
20.72
19.58
18.81
18.16
16.0
12.31
9.28
7.64
5.55
1.66
-3.18
-7.47
-10.97
-14.67
-19.4
-25.0
-31.01
-37.51
-45.54
-55.84
-65.49
-67.66
-58.19
-41.21
-24.62
-11.85
-1.55
7.58
15.37
21.31
25.46
28.86
32.47
35.65
37.41
38.07
37.91
36.57
34.4
32.21
30.27
28.7
27.4
25.85
23.83
21.57
19.51
17.91
16.37
14.19
11.65
9.59
7.95
6.03
3.46
0.19
-3.76
-7.9
-11.55
-15.06
-19.8
-25.87
-31.44
-35.82
-41.47
-51.15
-63.23
-70.74
-67.07
-52.93
-35.47
-20.58
-9.03
0.85
9.78
17.07
22.01
25.01
27.17
29.32
31.81
34.25
35.27
33.99
31.32
28.84
27.22
25.99
24.65
23.4
22.38
21.17
19.25
16.39
13.1
10.56
8.99
6.88
3.16
-1.22
-5.01
-8.31
-12.2
-17.44
-23.76
-30.0
-35.36
-41.2
-49.66
-58.48
-60.27
-50.79
-34.65
-19.29
-7.42
2.06
9.78
15.32
18.81
21.27
23.6
26.13
28.92
31.45
32.49
31.44
29.4
27.79
26.53
24.76
22.41
20.06
17.96
16.14
14.6
12.82
10.24
7.27
4.44
1.61
-1.37
-4.48
-7.93
-11.67
-15.49
-20.04
-26.1
-33.0
-39.73
-46.9
-56.08
-66.3
-71.96
-67.11
-52.54
-35.22
-20.37
-8.15
2.45
11.14
17.8
23.06
27.21
30.41
33.49
36.79
39.1
39.31
37.86
35.69
33.41
31.4
29.44
27.11
25.17
24.59
24.03
21.54
18.14
15.9
14.23
11.45
8.02
5.13
2.3
-1.45
-5.77
-9.83
-13.65
-17.71
-22.11
-27.1
-33.1
-39.87
-47.31
-56.59
-67.16
-73.21
-68.06
-52.65
-34.78
-20.27
-8.91
1.42
10.88
18.29
23.26
26.64
29.4
32.17
35.25
38.0
38.78
36.98
34.42
32.78
31.23
28.73
26.25
24.86
23.93
22.45
20.31
17.86
15.46
13.04
10.27
7.0
3.17
-0.84
-4.24
-7.16
-10.84
-16.01
-21.91
-27.53
-32.72
-38.76
-47.5
-58.11
-64.97
-61.43
-47.04
-28.71
-13.77
-3.76
3.84
10.31
14.99
18.21
21.39
24.77
27.58
29.77
31.55
31.92
29.64
25.68
22.47
20.57
18.61
15.79
12.74
10.3
8.64
6.61
3.02
-1.39
-5.08
-7.97
-10.88
-13.63
-15.38
-16.67
-19.24
-23.56
-28.51
-33.77
-40.04
-47.84
-56.49
-61.89
-57.93
-43.67
-25.9
-11.26
-0.14
9.97
19.17
26.1
30.91
34.61
37.3
39.33
41.67
43.73
43.57
40.63
36.67
33.78
32.16
30.56
28.42
26.22
24.11
21.64
18.95
16.54
14.09
11.1
8.12
5.71
3.01
-1.22
-6.41
-10.55
-13.45
-17.3
-22.95
-28.72
-34.21
-40.97
-49.73
-59.96
-68.89
-70.37
-60.27
-42.8
-25.96
-12.99
-2.52
6.6
14.05
19.65
24.17
28.21
31.52
33.76
35.27
36.16
35.49
32.68
29.21
27.02
25.68
23.41
20.67
19.23
18.29
15.85
12.25
8.81
5.17
1.0
-2.76
-5.86
-9.13
-12.94
-17.22
-22.11
-27.63
-33.43
-39.89
-48.38
-58.12
-63.35
-58.19
-44.1
-28.0
-14.5
-3.77
5.2
12.55
17.8
21.18
23.73
26.13
28.6
31.41
33.87
34.15
31.96
29.21
27.14
24.9
22.0
19.74
18.78
17.54
14.93
12.06
9.93
8.03
5.95
3.86
1.43
-1.8
-5.38
-8.36
-10.53
-12.96
-17.13
-22.98
-28.66
-33.35
-39.03
-47.91
-58.8
-66.63
-65.62
-54.14
-36.93
-21.17
-10.18
-2.33
4.5
9.98
13.38
15.68
17.81
19.68
21.36
23.12
23.72
21.28
16.43
12.31
10.77
10.44
9.5
8.12
7.33
7.14
6.65
5.04
2.62
0.67
-0.4
-1.17
-1.54
-1.07
-0.37
-0.37
-1.7
-4.88
-9.0
-11.77
-13.63
-18.58
-28.63
-40.36
-47.61
-45.66
-34.22
-17.97
-2.97
7.52
12.9
12.99
9.42
8.4
15.5
26.54
31.1
25.41
15.62
9.47
10.14
16.31
24.35
30.89
34.16
34.48
33.96
33.84
32.75
29.4
24.9
20.53
15.77
10.15
4.79
0.65
-2.87
-7.26
-13.37
-20.19
-26.28
-32.05
-39.97
-51.17
-61.71
-63.82
-53.58
-36.44
-22.13
-14.22
-7.79
2.34
13.95
20.19
17.98
10.65
3.95
2.6
8.45
18.66
27.55
32.1
34.04
35.91
37.95
39.09
38.87
37.69
36.14
33.99
30.34
25.23
19.98
15.54
11.74
8.05
3.87
-1.36
-7.24
-12.53
-17.42
-23.62
-30.93
-36.9
-41.55
-48.64
-59.87
-70.55
-73.07
-63.59
-45.81
-27.91
-15.04
-5.88
2.72
10.74
16.48
20.4
24.25
28.32
31.69
34.36
36.58
37.48
36.14
33.42
31.23
30.07
28.56
25.63
22.04
19.15
16.98
14.49
10.54
4.88
-1.0
-5.49
-9.48
-14.89
-21.48
-27.85
-33.9
-39.58
-43.87
-46.86
-50.71
-57.13
-65.68
-73.82
-76.15
-66.42
-44.93
-21.09
-3.79
7.54
17.99
27.64
32.12
30.0
25.86
27.29
37.76
50.53
53.73
43.29
26.82
14.63
11.55
16.28
24.5
31.91
35.67
35.47
33.68
32.43
30.9
26.99
20.56
13.36
6.63
0.14
-6.99
-14.85
-22.51
-29.45
-36.63
-45.83
-57.52
-68.09
-70.7
-61.6
-44.45
-26.52
-12.22
-1.48
7.39
14.69
19.59
22.76
26.29
30.62
34.29
36.33
36.74
35.54
32.88
29.73
27.3
25.75
24.27
22.67
21.36
19.77
17.06
13.89
11.3
9.02
6.15
2.52
-1.48
-5.23
-8.56
-12.31
-17.58
-23.95
-30.11
-35.77
-41.72
-49.41
-59.93
-70.39
-73.26
-63.83
-46.27
-28.38
-13.84
-2.11
7.59
15.12
20.26
23.48
25.97
28.69
31.66
34.43
36.43
36.85
35.36
32.86
30.51
28.69
27.04
25.21
23.46
22.24
20.83
17.91
13.82
10.49
8.84
7.42
4.09
-1.11
-5.72
-8.5
-11.6
-17.13
-23.66
-28.9
-33.43
-39.85
-49.52
-59.84
-63.84
-55.67
-37.95
-19.52
-6.28
2.01
7.57
11.51
14.37
17.23
20.97
25.25
29.23
32.35
33.63
32.34
29.49
26.95
25.21
23.34
20.92
18.83
17.53
15.99
13.41
10.52
8.0
5.06
0.93
-3.74
-7.75
-11.03
-14.63
-19.31
-24.8
-30.21
-35.36
-41.56
-50.64
-61.91
-69.7
-67.14
-53.8
-36.12
-20.01
-7.24
2.38
9.85
16.24
21.44
25.14
28.27
31.66
34.89
37.11
37.56
35.91
33.13
30.83
29.28
27.56
25.58
24.02
22.91
21.6
19.69
17.21
14.34
11.37
8.61
6.33
4.22
1.09
-3.4
-7.59
-10.25
-12.48
-16.07
-21.43
-27.65
-33.48
-38.56
-44.58
-53.7
-64.01
-68.23
-60.44
-43.51
-26.0
-12.91
-3.42
4.58
11.69
17.33
20.85
22.79
24.78
27.82
31.29
33.58
33.48
31.48
29.3
27.82
26.44
24.87
23.58
22.4
20.63
18.28
15.98
14.13
12.27
9.33
5.11
0.55
-3.75
-8.2
-13.19
-18.49
-23.57
-28.14
-32.8
-39.26
-48.21
-55.79
-54.96
-43.4
-26.85
-12.3
-1.76
5.64
10.27
12.66
14.39
16.57
19.03
21.72
24.94
27.56
27.68
25.5
22.97
21.02
19.29
17.72
16.67
15.75
14.02
11.34
8.67
6.66
4.81
2.7
0.15
-3.55
-8.28
-12.38
-15.59
-19.83
-25.63
-31.03
-35.34
-40.52
-48.44
-57.89
-63.38
-58.79
-44.24
-26.89
-13.1
-3.37
4.56
11.46
16.62
19.8
22.03
24.41
26.95
29.06
30.49
30.93
30.08
28.19
26.15
24.51
22.91
20.98
18.83
16.84
15.38
14.37
12.97
10.68
8.23
6.41
4.95
3.01
-0.21
-4.73
-9.33
-13.0
-16.5
-21.07
-26.59
-31.83
-36.33
-42.11
-51.63
-61.71
-63.77
-53.77
-37.29
-22.0
-10.75
-2.82
3.64
9.79
14.68
17.46
19.85
23.62
28.03
31.05
31.38
29.51
27.28
25.81
24.61
22.9
20.46
17.76
15.67
14.21
12.46
9.94
7.06
3.85
0.02
-3.72
-6.21
-7.94
-10.92
-16.14
-22.25
-27.59
-32.75
-40.27
-50.66
-59.21
-59.11
-48.46
-32.12
-16.53
-4.81
3.09
8.47
12.6
15.95
18.86
22.21
26.02
28.97
30.48
30.94
30.06
27.68
25.38
24.42
23.81
22.5
21.11
20.2
19.03
17.07
14.78
12.43
9.9
7.1
3.69
-0.7
-5.3
-8.66
-11.31
-15.49
-21.69
-28.03
-33.37
-38.85
-46.35
-56.34
-65.46
-66.71
-56.06
-37.99
-21.13
-9.35
-0.2
8.99
17.12
22.11
24.68
27.31
30.83
34.16
36.59
37.8
37.22
35.3
33.67
32.52
30.51
27.83
26.07
25.38
24.3
22.05
19.2
16.76
14.96
13.22
11.03
8.26
5.29
2.84
0.48
-3.01
-7.31
-11.15
-14.75
-18.95
-23.58
-28.25
-33.3
-39.92
-49.43
-59.78
-63.94
-56.62
-40.75
-23.99
-10.98
-1.47
6.0
11.46
14.92
17.87
21.3
24.36
26.81
29.48
31.68
31.68
29.84
28.21
27.42
26.12
23.67
21.13
19.06
17.07
15.45
14.3
12.22
8.88
5.84
3.26
-0.46
-5.18
-8.97
-11.77
-15.78
-21.68
-27.38
-31.57
-36.17
-44.07
-54.98
-63.65
-63.42
-52.72
-36.82
-21.89
-9.84
0.19
8.75
15.69
20.8
24.36
27.36
30.52
33.44
35.22
35.65
34.56
31.97
29.17
27.56
26.71
25.26
23.03
20.96
19.42
17.76
15.54
13.31
11.33
9.19
7.03
5.1
2.71
-0.6
-3.92
-6.53
-9.35
-13.48
-18.58
-23.76
-28.98
-34.48
-40.49
-48.17
-58.04
-65.73
-63.81
-50.69
-33.2
-18.47
-7.96
0.18
7.68
14.73
20.23
23.68
26.21
28.75
30.97
32.58
33.36
32.69
30.6
28.41
26.76
24.83
22.43
20.53
19.16
17.29
15.11
13.62
12.07
9.32
6.52
5.34
4.54
1.75
-2.8
-6.83
-9.57
-12.26
-16.14
-21.14
-26.44
-31.68
-37.84
-46.32
-55.61
-59.71
-53.45
-38.96
-23.34
-11.11
-2.26
4.39
9.14
12.27
14.79
17.53
20.25
22.69
25.2
27.14
27.12
25.13
22.43
20.23
18.93
17.89
16.36
14.82
13.73
12.27
9.82
6.89
3.86
0.57
-3.0
-6.46
-9.45
-12.25
-15.56
-19.44
-23.64
-28.27
-32.92
-36.79
-41.0
-47.95
-57.07
-62.63
-58.52
-45.21
-29.12
-15.42
-4.85
3.39
9.76
14.98
19.51
23.15
26.37
30.25
34.81
38.66
40.56
40.33
38.68
37.04
36.02
34.46
31.62
28.96
27.23
24.55
19.76
14.32
9.18
3.94
-1.01
-4.93
-8.07
-10.68
-12.63
-14.49
-17.09
-20.79
-26.46
-35.34
-46.17
-53.9
-53.11
-43.0
-27.74
-12.62
-0.92
7.0
12.42
16.19
18.11
18.74
19.78
22.25
25.48
27.86
28.2
26.43
23.23
19.6
16.35
13.55
10.83
7.99
4.91
1.37
-2.67
-7.39
-12.85
-18.61
-24.3
-30.44
-38.58
-49.41
-59.6
-62.88
-56.3
-43.92
-33.35
-28.34
-25.24
-19.09
-10.57
-2.57
5.11
12.75
18.22
21.2
24.4
29.41
34.99
39.53
43.04
46.08
47.84
47.21
44.96
42.59
40.24
36.97
32.61
27.92
23.31
18.22
11.95
5.25
-0.34
-5.44
-12.15
-19.88
-26.45
-32.54
-40.76
-51.76
-63.66
-71.69
-69.58
-56.21
-38.33
-23.52
-13.2
-4.59
3.8
11.04
16.5
20.7
23.79
25.64
26.87
28.09
28.8
27.78
24.33
19.42
15.38
13.73
13.5
12.14
8.17
2.7
-2.15
-5.6
-8.27
-10.75
-13.87
-19.66
-29.29
-39.35
-42.93
-36.25
-22.72
-8.79
2.52
12.0
19.94
25.25
28.12
30.25
32.47
34.32
35.44
35.99
36.09
35.21
32.94
30.02
27.53
25.58
23.8
22.15
20.49
18.48
16.03
13.43
10.76
7.86
4.78
1.98
-0.61
-3.68
-7.21
-10.31
-12.77
-15.69
-19.76
-24.15
-27.95
-32.27
-39.49
-49.87
-58.8
-59.48
-49.77
-34.51
-20.11
-9.55
-2.38
3.59
9.7
14.68
17.41
19.43
22.4
25.58
27.78
28.88
28.95
27.97
26.51
25.13
23.78
22.35
20.94
19.48
17.77
15.66
12.96
9.91
7.11
4.25
0.71
-2.72
-4.73
-5.52
-6.35
-7.51
-8.44
-9.19
-10.62
-13.59
-18.32
-23.91
-29.21
-34.8
-42.21
-50.09
-52.7
-45.27
-30.12
-14.43
-3.12
3.64
7.71
10.49
12.59
14.5
16.77
19.11
20.85
22.13
22.98
22.65
21.24
19.58
17.98
16.55
15.35
14.01
12.14
9.83
7.65
6.29
5.25
3.13
0.19
-2.32
-4.82
-8.16
-11.65
-15.1
-19.56
-24.73
-28.88
-31.95
-36.27
-43.88
-52.8
-56.62
-50.07
-35.22
-19.64
-8.47
-1.26
4.6
10.15
14.47
16.72
17.86
19.62
22.28
24.91
26.46
25.93
23.55
21.26
20.14
19.11
17.11
14.65
12.95
12.53
12.4
11.29
9.3
7.42
5.73
3.71
1.51
-0.43
-2.24
-4.56
-7.7
-11.12
-14.14
-17.1
-20.88
-25.48
-30.12
-35.07
-42.15
-51.5
-58.28
-55.81
-43.2
-26.72
-13.0
-3.72
2.97
8.35
12.09
14.15
16.03
18.62
21.23
23.53
25.73
26.8
25.78
23.6
21.6
19.94
18.62
18.04
17.84
16.87
14.9
13.11
11.85
10.08
7.9
6.42
4.9
1.73
-2.28
-5.58
-8.76
-12.57
-16.32
-19.91
-24.23
-29.18
-34.33
-41.09
-50.45
-58.64
-58.72
-47.94
-31.36
-16.48
-6.22
0.96
6.54
10.79
14.29
17.63
20.54
22.83
25.07
27.31
28.74
28.47
26.39
23.6
21.4
19.87
18.28
16.59
15.08
13.44
11.35
9.16
7.47
5.97
3.42
-0.49
-4.54
-7.96
-11.24
-14.85
-19.07
-24.17
-29.77
-36.07
-44.55
-53.88
-57.43
-49.96
-34.39
-18.02
-5.01
4.47
10.81
14.12
15.55
17.21
20.19
23.75
26.84
29.16
30.28
29.61
27.68
25.81
24.37
22.59
20.19
18.19
17.69
17.88
16.7
13.66
10.48
8.37
6.6
4.0
0.22
-4.33
-8.54
-11.89
-15.76
-21.69
-28.78
-35.42
-42.6
-52.33
-63.04
-68.64
-63.47
-48.35
-30.18
-14.79
-2.83
6.99
14.41
19.0
22.01
25.1
28.8
32.53
35.66
37.91
38.54
36.96
34.22
32.12
30.84
29.31
27.48
25.84
24.03
21.76
19.62
18.03
16.6
14.7
11.97
8.62
5.47
2.65
-0.85
-5.12
-9.11
-13.01
-18.17
-24.72
-31.2
-36.7
-42.67
-51.79
-63.47
-71.06
-67.39
-52.69
-33.91
-17.34
-4.58
5.37
12.88
17.71
20.7
23.88
28.44
33.41
37.19
39.42
40.07
38.83
36.38
34.01
31.71
29.16
27.2
25.91
23.83
20.75
18.0
15.99
13.85
11.13
8.33
5.86
3.3
-0.11
-4.28
-8.46
-12.44
-16.8
-21.79
-26.84
-31.52
-36.78
-44.64
-55.33
-63.98
-62.93
-49.94
-31.47
-15.42
-3.92
4.86
11.45
15.06
16.76
18.97
22.35
25.7
28.44
30.44
30.83
29.24
26.83
24.72
22.74
19.96
16.59
14.17
13.14
11.77
8.8
4.8
0.53
-3.51
-6.76
-10.11
-15.2
-21.12
-25.17
-26.81
-28.14
-30.43
-32.91
-35.29
-39.26
-46.96
-57.46
-65.2
-63.37
-50.42
-31.91
-14.79
-1.75
8.38
16.95
23.82
28.47
31.59
34.32
36.97
39.63
42.46
44.38
43.49
40.08
36.84
35.14
33.43
30.38
26.95
24.38
22.48
20.58
18.58
16.33
13.81
11.31
8.93
6.22
2.72
-1.31
-5.14
-8.88
-13.83
-20.49
-27.39
-33.35
-39.42
-47.71
-59.06
-70.45
-74.7
-66.66
-49.26
-30.52
-15.64
-4.76
4.04
11.94
18.64
23.69
28.12
33.41
39.04
43.0
44.66
45.02
44.23
41.18
36.07
30.7
26.91
25.79
26.6
26.08
21.45
14.14
7.98
5.3
5.86
7.58
8.26
6.94
3.28
-2.51
-8.71
-13.69
-18.15
-23.64
-30.18
-37.54
-46.53
-55.91
-59.99
-53.5
-38.51
-22.43
-9.78
-0.2
6.95
11.05
12.83
14.68
17.9
21.72
25.23
28.15
29.57
28.57
25.89
23.53
22.4
21.33
19.26
17.04
16.02
15.72
14.71
12.58
9.89
7.15
4.56
1.74
-1.92
-6.03
-9.7
-13.1
-17.25
-22.56
-28.64
-35.03
-41.58
-49.37
-59.89
-71.11
-75.96
-68.45
-50.91
-32.02
-17.47
-6.23
4.1
12.9
18.84
22.89
26.8
30.58
33.47
36.05
38.64
39.49
37.54
34.72
32.99
31.48
28.89
26.12
24.6
23.95
22.69
20.13
17.03
14.49
12.42
9.78
6.25
2.73
0.08
-2.13
-5.08
-9.13
-13.39
-17.62
-22.59
-28.29
-33.63
-38.79
-45.62
-55.42
-66.53
-73.62
-70.76
-57.03
-38.14
-20.98
-8.2
1.52
9.78
16.46
21.18
24.89
28.34
30.93
32.86
35.26
37.18
36.34
33.22
30.48
28.73
26.76
24.49
22.84
21.67
20.25
18.58
16.61
13.8
10.59
8.2
6.4
3.56
-0.81
-5.41
-9.21
-12.88
-17.57
-23.1
-28.27
-32.9
-38.98
-48.08
-57.23
-59.94
-52.64
-37.99
-21.71
-8.2
1.15
6.92
9.75
10.31
10.64
13.09
17.76
22.6
26.03
27.83
27.63
24.93
21.23
19.02
18.12
16.55
14.25
12.34
10.23
6.66
2.1
-2.1
-5.89
-10.52
-16.45
-22.6
-28.28
-34.65
-43.69
-55.67
-66.01
-66.99
-55.89
-38.42
-21.83
-8.61
1.88
10.23
16.48
20.97
24.61
28.11
31.35
34.06
36.27
37.7
37.71
36.12
33.62
31.33
29.79
28.45
26.44
23.54
20.17
16.95
14.13
11.23
7.57
3.03
-2.06
-7.16
-11.77
-16.39
-22.26
-29.28
-36.09
-42.54
-50.5
-61.53
-73.26
-78.39
-70.72
-52.71
-33.17
-17.82
-5.91
5.0
15.25
23.35
28.28
31.3
34.81
39.61
44.31
46.99
46.7
43.81
39.93
37.21
36.13
34.56
31.01
27.47
25.94
24.99
22.77
20.05
17.75
15.09
11.61
8.12
5.16
2.6
0.03
-3.12
-7.25
-12.05
-16.97
-21.97
-27.28
-33.14
-40.02
-48.5
-58.96
-69.96
-75.94
-70.31
-53.5
-33.72
-17.61
-4.98
6.23
15.59
21.95
25.97
29.16
32.09
34.82
37.52
39.48
39.18
36.3
32.59
30.05
28.83
27.32
24.4
20.9
18.04
15.77
13.09
9.34
4.63
-0.59
-5.8
-10.5
-14.75
-19.55
-25.43
-31.55
-37.63
-45.42
-55.05
-61.02
-56.54
-41.83
-23.79
-8.36
3.21
11.75
17.63
20.8
22.06
23.32
25.99
29.58
32.65
34.26
34.14
32.41
29.47
26.34
24.02
22.25
19.99
17.5
15.69
13.99
11.13
7.54
4.39
1.68
-1.43
-5.37
-9.89
-14.12
-17.61
-21.42
-26.84
-33.31
-39.37
-45.49
-54.0
-65.27
-74.28
-73.98
-62.89
-46.25
-30.05
-17.49
-9.16
-3.43
1.52
5.3
6.5
5.04
3.6
8.05
21.69
37.41
43.27
37.34
29.0
26.16
28.99
34.75
40.99
44.63
43.42
38.7
33.71
29.69
25.64
20.81
15.45
9.95
4.59
-0.82
-7.1
-14.28
-21.03
-26.81
-33.33
-42.42
-53.44
-62.0
-61.9
-51.08
-34.68
-19.56
-7.71
2.18
10.15
15.19
17.86
19.85
22.11
24.75
27.83
30.65
31.51
29.68
26.5
23.73
21.7
19.66
17.37
15.58
14.44
12.33
8.25
3.64
-0.18
-4.07
-8.92
-14.22
-19.42
-24.8
-31.09
-39.41
-49.86
-58.6
-59.02
-48.4
-31.66
-16.1
-4.35
5.26
13.68
19.68
22.86
24.93
27.57
30.67
33.34
35.14
35.46
33.55
30.04
26.93
25.08
23.56
21.74
20.01
18.37
16.36
13.68
10.45
7.25
4.38
1.22
-3.11
-8.06
-12.26
-15.99
-20.98
-27.41
-33.4
-38.06
-43.33
-51.99
-63.39
-71.01
-67.34
-52.65
-34.79
-20.1
-8.56
1.88
10.9
17.28
21.56
25.3
28.69
31.41
34.16
36.91
37.62
35.15
31.48
29.14
28.1
26.76
24.61
22.31
20.3
18.5
16.75
14.44
11.13
7.49
4.5
1.96
-0.87
-3.96
-6.96
-10.29
-14.71
-20.02
-25.13
-29.6
-34.62
-42.09
-51.98
-60.05
-59.57
-47.85
-30.03
-13.86
-2.38
5.94
12.34
16.43
18.5
20.19
22.77
25.96
28.89
31.06
31.76
30.16
26.85
23.89
22.31
20.78
18.2
15.65
14.22
13.0
10.69
7.71
4.82
1.48
-2.56
-6.19
-8.79
-11.5
-15.69
-21.18
-26.72
-31.54
-36.1
-41.98
-50.67
-60.0
-62.69
-53.42
-36.29
-20.02
-8.04
1.59
9.91
15.81
19.06
21.02
23.0
25.51
28.46
31.19
32.51
31.78
29.75
27.68
26.06
24.62
23.02
21.4
20.22
19.33
17.97
15.75
12.95
9.8
6.77
4.62
3.24
1.51
-1.52
-5.7
-9.75
-12.8
-15.98
-20.82
-26.49
-31.33
-36.13
-43.34
-53.55
-63.58
-67.13
-59.49
-42.98
-25.41
-12.55
-4.23
2.22
8.03
12.63
15.66
17.94
20.45
23.55
26.83
29.02
28.88
26.81
24.6
23.45
22.89
21.73
19.74
17.81
16.37
14.69
12.74
11.35
10.05
7.75
5.08
2.92
0.31
-3.45
-6.79
-8.66
-10.74
-14.88
-20.59
-26.3
-31.68
-37.84
-46.24
-56.21
-62.78
-59.5
-45.52
-27.44
-12.55
-2.32
5.83
12.92
17.8
20.61
23.08
25.42
26.8
27.96
29.73
30.62
29.18
26.52
24.48
23.15
21.67
20.14
19.45
19.4
18.26
15.36
12.26
10.1
8.1
5.33
1.89
-1.9
-5.71
-9.12
-12.38
-16.39
-21.16
-25.68
-30.04
-36.37
-45.27
-51.94
-49.58
-37.5
-21.83
-8.39
1.2
7.19
10.21
11.57
12.69
14.4
16.95
20.12
23.56
26.39
26.88
24.27
20.61
18.36
17.06
15.23
13.26
11.94
10.58
8.75
7.12
5.25
1.86
-2.69
-7.02
-10.66
-14.25
-18.47
-23.28
-28.09
-32.93
-38.79
-46.78
-56.65
-64.4
-63.44
-51.52
-34.19
-18.64
-7.11
1.91
9.63
15.66
19.67
22.66
25.6
28.26
30.67
33.19
34.99
34.73
32.78
30.64
28.9
27.27
25.7
24.22
22.73
21.08
19.1
16.92
15.03
13.14
10.31
6.83
4.06
1.74
-1.83
-6.57
-10.71
-14.07
-18.26
-23.77
-29.69
-35.7
-42.67
-51.75
-62.85
-72.19
-72.87
-61.31
-42.0
-23.36
-10.14
-1.06
7.07
14.99
21.13
24.86
27.56
30.49
34.05
38.04
41.01
40.9
37.62
33.65
31.22
29.98
28.24
25.85
24.21
23.49
22.14
19.85
17.88
16.4
14.29
11.39
8.35
5.18
1.73
-1.53
-4.43
-7.66
-11.94
-17.26
-23.17
-29.36
-35.33
-40.99
-48.14
-58.98
-71.2
-77.0
-70.17
-52.73
-32.78
-16.51
-4.76
4.34
12.02
18.28
22.84
26.06
29.03
32.75
36.79
39.42
39.55
37.85
35.49
33.11
30.91
28.8
26.57
24.4
22.46
20.34
17.75
14.95
12.06
8.61
4.55
0.73
-2.26
-5.14
-9.22
-14.58
-19.89
-24.41
-29.58
-37.5
-47.86
-56.1
-55.78
-44.5
-26.94
-9.83
3.74
13.04
17.31
17.41
16.58
17.62
20.82
24.97
29.12
32.04
32.15
29.55
26.44
24.17
22.44
21.23
20.67
19.76
17.55
14.34
10.92
7.59
4.27
0.51
-3.88
-8.14
-11.85
-16.28
-22.52
-29.17
-34.4
-39.22
-46.54
-58.05
-71.56
-79.75
-75.08
-57.95
-36.65
-18.62
-5.38
5.14
14.35
21.71
26.47
29.46
32.34
36.28
41.12
44.86
45.32
42.74
39.18
36.42
34.71
33.17
31.18
29.25
27.78
26.17
23.78
20.84
18.31
16.57
14.72
11.72
8.07
4.87
2.19
-0.72
-4.41
-8.89
-13.86
-19.15
-25.03
-31.76
-38.98
-45.95
-52.77
-61.38
-73.17
-83.77
-84.04
-70.2
-48.78
-28.68
-13.36
-1.79
7.54
15.39
21.8
26.62
30.22
33.55
37.62
42.27
45.5
45.1
41.35
37.03
34.47
33.37
32.15
30.11
27.69
25.51
23.88
22.28
19.92
16.85
13.72
10.68
7.53
4.33
0.69
-4.06
-9.19
-13.19
-16.76
-22.2
-29.5
-36.1
-41.25
-47.35
-57.01
-69.81
-80.17
-79.66
-65.32
-43.76
-24.13
-9.64
1.58
11.08
18.25
22.91
26.54
30.29
33.95
37.44
40.78
42.64
41.82
39.4
37.34
35.98
34.32
31.81
28.95
26.68
25.16
23.62
21.18
17.75
13.63
9.42
5.78
2.85
-0.01
-3.5
-7.35
-10.84
-14.35
-19.23
-25.63
-32.14
-37.93
-43.98
-52.33
-63.44
-72.28
-70.59
-55.96
-35.16
-16.31
-2.32
7.24
12.96
15.76
17.61
20.51
24.66
28.81
32.14
34.44
35.12
33.7
31.0
28.52
26.63
24.49
22.0
20.06
18.52
16.15
12.87
9.64
6.39
2.4
-2.13
-6.23
-9.92
-14.67
-21.41
-28.79
-34.94
-40.67
-49.1
-61.37
-72.72
-74.64
-63.02
-42.83
-22.86
-7.98
2.26
10.23
17.06
22.02
25.02
27.94
32.1
36.45
39.63
41.11
40.2
37.05
33.67
31.5
29.67
27.09
24.4
22.54
21.21
19.29
16.11
11.98
7.91
4.52
1.1
-3.4
-8.8
-14.11
-19.22
-24.72
-30.38
-35.09
-38.08
-39.53
-40.37
-41.55
-43.3
-45.89
-50.63
-58.69
-67.18
-68.14
-55.94
-34.68
-13.73
1.89
12.95
21.69
29.58
36.59
41.21
43.29
44.87
47.2
49.49
50.35
48.67
44.15
38.44
33.79
30.67
28.57
27.35
26.45
25.06
23.34
21.49
19.15
16.58
14.45
12.65
10.57
7.87
4.58
1.1
-2.4
-6.28
-10.62
-15.01
-19.58
-24.81
-30.61
-36.49
-42.55
-49.88
-59.96
-72.21
-80.92
-78.06
-62.1
-40.5
-21.76
-8.44
1.65
10.65
18.4
24.27
29.06
33.54
37.43
40.55
42.58
42.68
40.91
38.43
35.72
32.6
29.7
27.92
26.99
25.85
24.06
22.04
19.87
17.01
13.45
10.03
7.16
4.16
0.4
-3.63
-7.35
-11.46
-16.99
-23.46
-29.33
-34.2
-39.52
-47.35
-58.67
-70.26
-74.03
-63.9
-43.73
-23.5
-8.94
1.14
9.0
14.21
16.29
17.71
21.1
25.57
29.06
31.82
34.19
34.52
32.01
28.44
25.86
24.35
22.79
20.63
18.19
15.9
13.49
10.4
6.48
2.14
-2.01
-5.95
-10.52
-16.6
-23.75
-30.46
-36.44
-43.62
-54.07
-65.43
-69.97
-61.88
-44.06
-24.61
-8.67
3.38
12.07
17.53
20.72
23.44
26.53
29.68
32.93
36.32
38.55
38.27
36.07
33.76
32.13
30.39
27.81
24.69
22.05
20.49
19.29
16.97
13.27
9.68
7.0
4.16
0.18
-4.3
-8.26
-11.83
-16.14
-21.95
-28.7
-35.39
-41.82
-48.79
-58.09
-70.67
-82.11
-83.05
-69.17
-47.2
-26.9
-11.65
-0.04
9.22
16.57
22.2
26.39
29.89
33.41
37.2
40.98
43.7
43.93
41.6
38.4
36.1
34.8
33.62
32.14
30.4
28.1
24.98
21.66
18.72
15.58
11.54
7.24
3.83
1.23
-1.52
-5.03
-9.22
-13.42
-17.34
-21.94
-28.07
-34.88
-41.08
-47.14
-55.46
-67.77
-80.97
-86.49
-77.88
-58.24
-36.53
-18.76
-5.68
4.17
12.36
19.45
24.85
28.74
32.37
36.31
40.03
42.95
44.33
43.05
39.42
35.92
34.07
32.5
29.84
27.16
25.64
24.49
22.65
20.45
18.07
14.59
10.02
6.09
3.32
-0.06
-4.74
-9.41
-13.76
-18.68
-24.12
-29.39
-34.86
-41.57
-50.73
-62.9
-74.1
-75.82
-63.67
-43.19
-23.03
-7.23
3.82
10.69
14.72
17.2
18.94
21.31
25.45
30.35
33.74
34.67
33.85
31.9
29.11
26.31
24.05
21.88
19.51
17.31
15.31
12.85
9.55
5.86
2.54
-0.79
-5.69
-12.43
-19.13
-24.74
-30.42
-37.96
-48.49
-60.6
-67.85
-62.91
-46.07
-25.49
-8.7
2.9
11.45
17.74
20.95
22.36
25.01
29.53
33.94
36.91
37.98
36.76
33.79
30.35
27.07
24.04
21.46
19.31
17.22
15.01
12.54
9.54
5.82
1.14
-4.48
-10.21
-15.57
-21.38
-28.03
-34.6
-40.92
-48.73
-59.97
-73.73
-83.65
-81.57
-66.0
-43.99
-23.68
-8.37
2.93
12.32
20.7
27.57
32.52
35.96
38.95
42.43
45.84
47.4
45.97
42.37
38.74
36.48
34.8
32.28
28.97
25.98
23.52
20.59
16.42
11.98
8.8
5.98
1.18
-4.95
-9.68
-13.11
-17.91
-24.95
-32.78
-40.12
-47.27
-56.08
-68.18
-80.82
-85.55
-75.58
-54.12
-31.24
-13.57
-0.8
9.57
18.39
25.15
29.51
32.29
35.04
38.81
43.15
45.97
45.43
42.58
39.97
37.96
35.2
31.87
29.27
27.33
25.24
23.01
20.76
17.81
13.96
10.18
6.71
2.36
-2.91
-7.26
-10.29
-14.31
-20.92
-28.66
-35.47
-41.38
-48.43
-59.07
-72.37
-80.76
-75.36
-56.44
-33.36
-14.37
-1.09
8.27
15.23
20.04
22.69
24.53
27.61
32.29
36.92
39.54
39.11
36.05
32.08
28.96
26.73
24.06
20.49
16.99
13.93
10.26
5.51
0.87
-3.0
-7.43
-13.77
-20.98
-27.4
-33.53
-41.41
-52.21
-63.4
-67.58
-58.61
-39.52
-19.22
-2.79
9.57
17.93
22.34
24.34
26.16
29.09
33.21
37.62
40.77
41.33
39.2
35.53
31.98
29.29
26.97
24.49
21.93
19.41
16.71
13.77
10.54
6.28
0.54
-5.46
-10.41
-15.15
-21.5
-29.02
-35.49
-40.82
-48.04
-59.77
-74.27
-84.12
-80.8
-63.59
-41.04
-21.69
-6.98
5.46
16.25
24.19
29.16
32.87
36.54
39.74
42.1
43.79
44.32
42.82
39.56
35.9
32.83
30.47
28.51
26.54
24.33
22.11
19.84
17.11
14.05
11.17
8.12
4.12
-0.65
-5.33
-9.6
-13.77
-18.89
-25.84
-33.66
-40.37
-46.41
-54.83
-67.22
-79.42
-82.71
-71.77
-50.99
-29.8
-13.08
0.2
11.33
19.6
24.92
28.98
33.01
36.56
39.22
41.46
42.97
42.57
40.24
37.26
34.42
31.96
30.01
28.09
25.84
23.73
21.86
19.57
16.81
13.81
10.19
6.25
3.13
0.78
-2.11
-6.27
-11.28
-16.7
-22.89
-29.51
-35.05
-39.27
-44.72
-54.2
-67.14
-77.2
-75.37
-59.47
-37.39
-17.66
-2.74
7.61
13.98
18.27
22.2
25.99
29.46
32.75
36.06
39.01
40.09
38.34
34.79
31.26
28.59
26.33
23.66
20.65
17.91
15.35
12.29
8.59
4.67
0.6
-3.87
-8.61
-13.53
-19.19
-25.45
-30.85
-35.36
-42.13
-53.0
-63.32
-64.79
-53.95
-35.4
-16.28
-0.77
9.93
15.78
17.7
17.93
19.03
21.99
25.8
29.24
32.02
33.59
32.65
28.97
24.6
21.66
19.83
17.57
14.7
12.13
9.95
7.15
3.12
-1.67
-6.51
-11.18
-15.74
-20.75
-27.23
-35.04
-42.37
-49.06
-57.96
-69.24
-75.59
-68.87
-50.5
-29.61
-12.64
-0.08
9.25
16.01
20.81
24.35
27.28
29.98
32.98
36.7
39.96
40.44
37.95
34.49
31.29
28.07
24.84
22.37
20.72
18.87
16.27
13.44
10.76
7.36
2.57
-2.86
-7.89
-12.63
-17.8
-23.63
-29.76
-35.63
-41.47
-49.56
-62.14
-75.47
-79.56
-68.28
-46.77
-25.33
-9.47
1.54
10.07
17.14
22.71
27.01
30.7
34.02
37.23
40.84
43.75
43.61
40.49
37.17
34.61
31.39
27.6
24.82
22.8
20.3
17.62
15.4
12.88
9.36
5.23
0.93
-3.51
-8.08
-13.03
-18.85
-25.24
-31.18
-36.81
-44.46
-56.31
-69.53
-75.05
-65.58
-44.63
-22.76
-6.37
4.92
12.56
17.16
20.06
22.58
25.12
28.35
32.69
36.51
37.51
35.64
32.69
29.7
26.38
22.6
19.02
16.41
14.7
12.9
9.79
4.95
-0.56
-5.51
-10.56
-17.17
-24.77
-31.63
-38.16
-46.81
-58.05
-66.86
-65.16
-50.23
-28.51
-8.93
4.57
12.78
17.52
20.17
22.16
24.81
28.24
31.54
34.46
37.0
37.58
34.86
30.74
28.0
26.47
24.28
20.93
17.15
13.42
9.43
4.56
-0.84
-5.63
-10.28
-16.37
-23.75
-30.72
-37.21
-45.45
-57.35
-71.42
-81.48
-79.67
-64.15
-42.11
-22.19
-6.81
5.99
17.13
25.49
30.63
34.26
38.31
42.6
45.84
47.5
47.24
44.86
41.54
38.63
35.88
32.4
28.79
26.18
24.4
22.51
20.08
17.0
13.16
9.25
5.76
1.75
-3.42
-8.78
-14.09
-20.8
-28.88
-36.36
-42.87
-50.52
-61.44
-75.24
-86.2
-85.3
-69.57
-46.4
-25.32
-9.21
3.93
15.19
23.69
29.47
33.98
37.98
41.37
44.55
47.3
47.9
45.72
42.5
39.92
37.75
34.96
31.45
28.38
26.89
26.24
24.34
20.37
15.45
11.19
8.11
5.23
1.18
-3.74
-8.08
-11.98
-17.03
-23.5
-29.99
-35.67
-41.49
-49.49
-61.08
-73.54
-78.87
-70.28
-50.17
-27.93
-10.53
1.81
11.57
18.97
22.68
23.99
26.22
30.09
33.84
37.0
39.28
38.7
34.9
30.94
28.74
26.5
22.73
18.88
16.54
14.77
11.65
6.65
1.06
-3.49
-7.21
-12.1
-18.83
-25.67
-31.68
-38.47
-48.08
-60.02
-69.2
-67.81
-53.06
-31.66
-12.71
1.0
11.24
18.3
21.34
21.76
22.4
24.18
26.32
28.26
29.38
28.2
24.02
18.24
12.92
8.72
5.03
1.44
-1.78
-4.49
-6.91
-8.6
-8.12
-4.82
-0.26
3.45
5.04
2.87
-4.3
-14.44
-23.61
-31.01
-39.92
-52.81
-66.35
-72.31
-64.91
-46.55
-25.01
-6.67
6.45
15.64
22.76
28.27
32.19
35.54
39.18
42.87
46.2
48.89
50.12
49.33
47.21
44.93
42.54
39.28
35.23
31.53
28.8
26.23
22.45
16.96
10.71
5.0
-0.39
-6.78
-14.11
-21.23
-28.12
-35.95
-45.25
-54.44
-59.2
-54.97
-41.72
-24.57
-8.66
4.26
13.67
18.47
18.82
17.56
17.69
19.6
21.86
23.17
22.71
20.06
15.61
10.26
4.88
-0.13
-5.05
-9.88
-13.7
-16.24
-18.67
-21.7
-25.05
-29.37
-35.84
-43.57
-48.38
-44.66
-30.52
-11.0
6.51
18.56
25.24
27.0
25.13
22.65
22.19
23.95
26.57
28.79
29.35
27.09
22.58
17.78
13.32
8.31
2.86
-1.96
-6.25
-11.44
-18.22
-25.52
-32.18
-39.41
-50.13
-64.51
-76.63
-77.85
-64.59
-42.19
-20.03
-3.5
8.49
18.69
26.97
32.04
34.88
37.64
40.88
43.91
46.32
47.22
45.18
40.72
36.43
33.1
29.12
24.29
20.31
17.02
12.54
6.83
1.21
-4.62
-12.24
-21.6
-30.92
-39.09
-47.19
-57.37
-69.99
-80.43
-80.48
-66.33
-43.69
-21.71
-4.16
10.33
22.59
31.44
36.5
39.21
41.35
44.11
47.75
50.84
51.01
47.78
43.1
39.26
36.98
35.46
33.54
30.91
28.02
24.97
21.28
17.2
13.93
11.72
8.89
4.28
-0.84
-4.5
-7.0
-10.56
-16.35
-22.91
-28.23
-32.43
-37.78
-46.49
-57.68
-65.0
-60.66
-44.5
-25.17
-10.05
0.6
8.9
14.77
17.85
19.48
21.25
23.46
25.78
27.96
29.15
28.25
25.28
21.79
19.4
18.11
16.6
14.11
11.16
8.71
7.12
5.5
2.65
-1.02
-3.83
-5.78
-8.77
-13.11
-17.1
-20.37
-24.36
-29.85
-36.71
-43.51
-46.01
-40.24
-27.97
-15.02
-5.01
2.19
7.42
10.5
11.78
12.74
14.01
15.14
16.38
17.96
18.73
17.81
15.93
14.05
12.36
10.7
9.03
7.74
7.36
7.33
6.26
3.83
1.27
-0.46
-1.7
-3.36
-5.79
-8.23
-9.84
-11.46
-14.23
-17.47
-20.11
-22.51
-25.82
-31.09
-37.88
-42.26
-38.94
-27.82
-14.87
-5.35
0.62
5.09
8.36
9.88
10.03
9.74
9.78
10.52
11.6
12.27
12.36
11.91
10.66
9.23
8.53
7.99
6.86
5.93
5.53
4.34
2.12
0.35
-0.65
-1.82
-3.25
-4.43
-5.76
-7.7
-9.74
-11.59
-13.27
-14.43
-15.3
-16.9
-19.51
-23.09
-28.2
-33.2
-33.22
-25.68
-14.11
-3.95
2.71
6.63
8.81
9.6
9.26
8.64
8.93
10.16
11.36
12.08
12.3
11.54
9.71
8.01
7.39
7.19
6.46
5.14
3.84
3.26
2.94
1.59
-0.41
-1.33
-1.39
-2.54
-5.1
-7.73
-9.74
-11.64
-13.88
-16.24
-18.5
-21.18
-25.29
-30.7
-34.05
-30.69
-20.58
-9.06
-0.6
4.43
7.03
7.88
7.88
7.97
8.76
10.3
11.83
12.61
12.9
13.02
12.49
11.13
9.99
9.72
9.38
8.02
6.35
5.41
4.89
3.85
2.26
0.81
-0.2
-1.24
-2.88
-5.02
-7.1
-9.02
-11.12
-13.58
-16.25
-19.14
-23.15
-28.93
-33.88
-32.72
-23.48
-10.93
-1.31
4.03
6.97
8.09
7.25
5.93
5.84
7.1
9.24
11.91
14.09
14.22
12.27
10.18
9.21
8.61
7.73
6.78
5.7
4.34
2.87
1.04
-1.19
-3.18
-5.02
-7.78
-11.65
-15.66
-19.15
-22.94
-28.61
-36.36
-42.86
-42.74
-33.97
-20.6
-8.23
0.84
6.7
9.63
10.51
10.93
11.93
13.79
16.38
19.22
21.85
23.72
23.83
21.9
19.38
17.58
15.94
13.81
11.85
10.41
8.37
5.2
1.86
-1.2
-4.64
-9.03
-14.1
-19.19
-23.98
-29.03
-35.63
-44.88
-55.23
-60.53
-54.71
-39.38
-22.35
-8.86
1.05
8.49
13.73
17.31
20.16
22.83
25.38
28.04
31.35
34.75
36.2
34.73
31.85
29.16
26.8
24.52
22.33
20.32
18.91
17.97
15.91
11.24
5.12
-0.24
-4.98
-10.87
-17.97
-24.93
-31.22
-37.79
-46.72
-58.99
-70.04
-71.19
-58.97
-39.17
-19.98
-4.75
7.1
16.1
22.05
25.8
29.19
33.09
37.01
40.39
42.81
43.7
42.64
40.04
36.93
34.28
32.46
31.02
28.94
25.62
21.63
17.78
13.68
8.63
3.1
-2.12
-7.33
-13.52
-20.86
-28.57
-36.35
-45.55
-57.68
-69.88
-74.1
-64.39
-44.01
-21.64
-2.98
11.12
21.01
27.01
30.52
33.82
38.24
42.99
46.38
48.23
49.24
48.52
44.97
40.48
37.93
36.78
34.59
31.36
28.95
27.7
26.19
23.25
18.9
14.08
9.71
5.72
1.53
-2.5
-6.12
-10.76
-17.31
-24.37
-30.44
-36.33
-44.02
-54.96
-68.4
-78.8
-77.39
-61.09
-37.3
-15.88
0.08
12.12
20.76
25.9
29.09
32.63
37.38
42.51
46.67
49.04
49.0
46.46
42.59
39.11
36.35
33.59
30.78
28.35
26.31
24.15
21.38
17.76
13.7
9.97
6.76
3.28
-1.16
-5.96
-10.22
-14.47
-19.84
-25.94
-31.4
-36.35
-42.82
-52.61
-64.09
-70.8
-65.74
-48.89
-27.96
-10.53
1.72
10.67
17.14
21.01
23.58
26.84
30.94
34.51
36.93
38.08
37.26
34.21
29.96
26.12
23.65
22.39
21.53
20.42
18.52
15.37
11.48
8.11
5.54
2.76
-1.04
-5.28
-8.89
-12.15
-16.49
-21.92
-26.78
-30.64
-35.49
-43.34
-53.44
-60.69
-58.32
-44.91
-26.65
-10.91
-0.07
7.16
11.72
14.04
15.4
17.05
19.31
22.15
25.25
27.49
27.7
25.59
22.15
19.09
17.19
15.97
15.08
14.2
12.75
10.54
7.79
4.97
3.09
2.05
-0.24
-4.41
-8.17
-10.39
-12.9
-17.12
-22.03
-26.32
-30.17
-34.72
-41.2
-49.57
-56.4
-55.92
-45.55
-29.19
-13.77
-3.27
3.05
7.31
10.08
11.85
14.25
17.65
20.74
22.91
24.31
24.47
23.25
21.42
19.51
17.72
16.42
15.35
13.92
12.28
10.61
8.66
6.84
5.87
4.72
1.63
-3.01
-7.12
-9.71
-11.72
-14.71
-19.16
-24.13
-28.4
-32.05
-36.94
-45.01
-54.07
-56.57
-46.98
-29.34
-12.99
-2.3
4.64
9.81
13.15
15.1
16.87
18.74
20.4
22.14
24.18
25.4
24.31
21.52
19.25
18.21
17.46
16.63
15.59
13.88
12.26
11.88
11.4
8.93
5.47
3.22
1.85
-0.74
-4.8
-8.16
-9.92
-12.41
-17.67
-24.01
-28.56
-31.79
-36.84
-45.3
-54.22
-57.03
-49.17
-33.39
-17.41
-5.92
2.02
8.27
12.43
13.99
14.42
15.76
18.57
21.98
24.68
25.87
25.66
24.63
23.01
20.98
19.15
17.81
16.6
15.38
14.3
13.27
11.83
9.74
7.22
4.91
3.04
1.2
-1.04
-3.77
-7.0
-10.79
-15.24
-20.1
-24.58
-28.15
-31.78
-37.61
-46.53
-55.43
-57.63
-48.78
-32.1
-15.13
-2.79
4.52
8.5
11.17
13.75
16.17
18.37
20.88
23.75
26.25
27.7
27.83
26.9
25.33
23.49
21.67
20.19
19.12
18.18
17.11
15.8
14.01
11.56
8.76
6.33
4.41
2.18
-0.9
-4.21
-6.93
-9.55
-13.34
-18.76
-24.92
-30.38
-34.78
-40.14
-48.75
-58.24
-61.21
-52.7
-35.97
-18.53
-4.77
5.03
11.35
14.47
15.84
17.71
20.84
24.41
27.75
30.44
31.52
30.54
28.44
26.16
23.99
22.13
20.63
19.22
17.95
16.93
15.75
14.11
12.02
9.45
6.8
4.46
1.86
-1.58
-5.12
-8.26
-11.73
-16.16
-21.25
-26.46
-31.8
-38.33
-47.43
-57.67
-63.14
-57.66
-41.89
-23.3
-8.73
0.61
6.98
11.6
13.99
14.86
16.63
20.13
23.93
26.99
28.86
28.58
26.31
23.81
22.42
21.85
21.03
19.35
17.15
15.15
13.35
10.93
7.19
2.52
-1.78
-5.24
-8.99
-14.14
-20.33
-26.28
-31.48
-37.5
-46.68
-58.04
-65.43
-62.16
-47.93
-29.22
-12.73
-0.5
8.54
15.17
19.65
22.81
25.57
28.1
30.46
33.34
36.51
37.86
36.05
32.49
29.33
27.44
26.62
25.91
24.35
22.21
20.52
19.12
17.0
13.99
10.87
7.81
4.13
-0.25
-4.59
-8.76
-13.28
-18.38
-24.33
-31.35
-38.51
-45.13
-53.07
-64.39
-75.57
-77.97
-66.63
-46.42
-26.38
-10.9
0.94
10.87
19.1
24.94
28.48
31.49
35.54
40.12
43.73
45.57
45.03
42.1
38.6
36.35
34.78
32.68
30.6
29.25
27.72
24.91
21.32
18.01
15.23
12.85
10.91
8.81
5.33
0.38
-4.37
-8.05
-12.37
-18.84
-26.05
-32.06
-37.47
-44.55
-54.76
-66.02
-71.17
-63.28
-44.41
-23.83
-7.81
3.6
11.51
16.15
18.79
21.36
24.52
28.03
31.84
35.11
36.02
33.93
30.42
27.56
25.73
23.75
20.9
17.78
14.95
11.95
8.17
3.91
-0.24
-4.66
-10.29
-17.0
-23.67
-29.7
-35.88
-44.52
-56.54
-66.74
-66.4
-53.11
-33.69
-15.85
-1.95
8.96
17.21
22.19
24.56
26.66
30.05
34.09
37.63
39.83
39.74
37.15
33.72
31.52
30.61
29.28
26.74
24.16
22.48
20.65
17.54
13.73
10.29
7.01
3.02
-1.57
-5.88
-9.7
-13.95
-19.68
-26.99
-34.81
-41.92
-48.93
-58.43
-71.5
-83.9
-87.45
-77.37
-57.9
-37.99
-22.36
-9.69
1.71
10.8
16.39
19.28
21.07
22.21
22.43
21.82
20.33
16.63
9.43
0.62
-5.66
-8.06
-9.1
-10.65
-11.36
-9.81
-6.96
-3.54
1.4
7.5
12.11
13.91
14.31
14.82
15.49
15.36
13.04
7.85
0.65
-7.29
-15.94
-26.25
-37.47
-44.93
-42.58
-29.49
-11.39
5.33
18.45
28.46
35.64
40.22
43.69
47.8
52.42
55.97
57.42
56.61
53.26
47.68
41.88
37.71
34.59
30.95
26.93
23.54
20.72
17.82
14.03
8.77
2.9
-2.47
-8.31
-15.95
-24.3
-31.55
-38.29
-47.33
-60.1
-72.39
-75.5
-64.7
-44.96
-25.22
-9.75
2.39
12.66
21.16
27.41
30.94
32.49
34.05
36.68
39.22
40.21
39.49
37.57
35.24
33.24
31.24
28.34
25.23
23.5
22.65
20.5
16.61
12.58
9.22
6.29
3.83
1.74
-0.9
-4.89
-9.78
-14.29
-17.88
-21.82
-27.89
-35.96
-44.18
-51.56
-59.44
-70.02
-81.81
-87.59
-80.61
-62.46
-41.37
-23.94
-10.77
0.79
11.88
20.88
26.69
30.79
34.82
38.55
41.25
42.64
42.37
40.37
37.54
34.87
32.65
30.79
28.73
25.91
23.07
20.9
18.34
14.57
10.9
8.29
5.46
1.01
-4.54
-9.36
-12.56
-15.65
-20.48
-26.44
-31.71
-36.21
-41.87
-50.73
-62.23
-70.48
-67.44
-51.98
-32.19
-16.09
-4.56
4.76
11.67
15.2
17.13
20.11
24.4
28.7
31.92
33.18
32.28
30.2
27.72
24.92
22.26
20.18
18.23
15.93
13.48
11.25
9.13
6.42
2.46
-2.46
-7.52
-12.4
-17.39
-23.14
-29.92
-36.76
-42.96
-50.03
-60.06
-70.99
-75.51
-67.72
-49.96
-30.46
-15.12
-3.91
5.73
14.56
21.38
25.92
29.45
32.4
34.52
36.48
38.4
38.73
36.77
34.0
31.86
30.15
28.19
25.98
24.11
22.76
21.23
19.03
16.55
13.95
10.89
7.33
3.42
-0.82
-4.94
-8.47
-11.61
-15.07
-19.86
-26.4
-33.27
-39.02
-44.81
-53.05
-64.12
-74.3
-76.43
-65.84
-46.43
-26.99
-12.43
-2.06
6.41
14.08
20.56
24.91
27.55
30.0
32.91
35.67
37.17
36.62
34.22
31.16
28.45
25.92
23.41
21.21
19.21
17.02
14.67
11.95
8.0
3.09
-1.23
-4.37
-7.52
-12.23
-18.62
-24.97
-30.13
-35.66
-43.93
-54.48
-62.91
-63.07
-52.06
-33.95
-16.11
-2.54
7.05
13.4
16.78
18.72
21.44
25.4
29.41
32.79
35.29
36.11
34.77
32.01
29.14
26.88
25.11
23.24
21.12
19.17
17.6
16.07
13.91
10.53
6.53
3.27
0.55
-3.15
-7.62
-11.48
-15.39
-20.88
-27.38
-33.38
-38.75
-44.61
-52.73
-64.0
-74.23
-74.76
-61.66
-41.16
-22.46
-9.02
0.93
9.43
16.92
22.79
26.78
29.85
33.31
37.13
39.96
40.58
38.97
36.31
33.96
32.14
29.97
26.98
24.05
22.4
21.88
20.89
18.49
15.37
12.09
8.31
4.46
1.42
-1.42
-5.04
-8.94
-12.98
-18.39
-24.91
-30.49
-34.96
-40.99
-50.51
-61.98
-70.19
-68.49
-54.83
-35.1
-17.17
-3.94
5.67
12.79
18.24
22.65
26.18
29.12
32.0
34.6
36.29
36.61
35.46
33.18
30.48
28.13
26.23
24.17
21.66
19.08
16.58
13.9
11.22
8.72
5.95
2.75
-0.66
-4.32
-8.38
-12.95
-18.0
-23.01
-27.58
-32.6
-39.62
-48.94
-57.66
-59.8
-50.96
-33.86
-16.37
-3.7
4.35
9.5
12.57
14.64
17.23
20.87
24.74
27.63
29.05
29.15
27.87
25.25
22.43
20.79
19.89
18.48
16.53
14.58
12.46
9.86
7.18
4.78
2.06
-1.96
-7.1
-11.84
-15.68
-20.07
-25.77
-31.79
-37.74
-45.0
-54.92
-66.12
-73.09
-69.52
-55.01
-36.18
-19.68
-7.03
3.12
11.37
17.46
21.73
25.15
28.45
31.83
34.94
36.94
37.46
36.76
34.9
32.06
29.37
27.8
26.96
25.91
24.3
22.2
19.88
17.63
15.26
12.31
8.88
5.62
2.52
-1.0
-4.95
-8.88
-12.87
-17.64
-23.51
-29.94
-36.05
-42.15
-50.44
-62.32
-74.39
-78.81
-69.93
-50.51
-29.31
-13.01
-2.27
5.76
13.18
20.07
25.61
29.54
32.46
35.36
38.42
40.43
40.18
37.96
34.99
32.27
30.17
28.42
26.64
25.01
24.0
22.97
20.58
16.71
12.84
10.14
7.95
4.71
0.22
-4.14
-7.81
-11.86
-16.87
-22.18
-27.51
-33.29
-40.15
-49.06
-59.94
-68.26
-66.43
-51.91
-31.26
-13.27
-1.09
6.88
11.99
14.52
16.1
18.92
22.74
26.16
29.56
32.91
33.65
30.77
26.97
24.48
22.7
20.54
17.97
15.39
12.76
9.16
4.14
-0.89
-4.71
-8.67
-14.59
-21.83
-28.48
-34.56
-42.43
-53.71
-65.43
-70.19
-62.45
-44.7
-24.91
-8.99
2.44
11.11
17.94
22.9
26.43
29.55
32.75
35.98
38.69
39.97
39.32
37.29
34.72
32.03
29.33
26.55
23.75
21.11
18.48
15.52
12.17
8.28
3.5
-1.63
-6.0
-10.32
-16.73
-25.01
-32.28
-37.41
-43.06
-52.72
-66.64
-79.54
-82.8
-72.06
-52.07
-31.28
-14.37
-1.31
9.51
19.0
26.65
32.02
36.1
39.85
43.07
45.59
47.47
47.7
45.41
42.08
39.89
38.27
35.39
31.77
29.05
27.04
24.51
21.38
18.03
14.21
9.9
5.6
1.24
-3.64
-8.43
-12.59
-17.6
-24.89
-32.79
-38.98
-45.0
-54.99
-70.07
-84.33
-87.91
-76.38
-56.19
-37.62
-24.57
-14.3
-4.52
2.92
5.41
4.86
7.19
15.84
28.26
39.36
45.86
47.29
45.51
43.54
43.27
43.85
43.23
41.75
42.08
45.13
48.42
48.98
45.53
37.92
26.94
14.18
0.72
-12.84
-25.6
-37.34
-49.85
-64.62
-79.08
-87.13
-84.23
-71.41
-53.47
-34.37
-15.7
1.3
14.71
23.66
29.49
34.45
39.92
45.95
51.33
54.3
54.32
52.86
51.43
49.58
45.9
40.42
34.66
29.54
24.74
19.86
14.96
10.49
6.92
3.72
-0.36
-5.31
-9.96
-14.62
-20.89
-28.46
-35.07
-40.15
-46.26
-55.77
-67.03
-73.8
-69.83
-55.14
-36.3
-19.59
-6.36
4.69
14.04
21.4
26.6
29.82
31.86
33.94
36.61
38.84
39.13
37.48
35.36
33.66
31.76
29.07
25.86
22.4
18.66
14.99
11.38
7.34
3.23
-0.39
-4.01
-8.03
-11.94
-16.11
-21.54
-27.5
-32.51
-37.39
-44.84
-55.93
-66.57
-69.23
-60.4
-44.45
-27.89
-13.39
-1.21
8.03
14.18
18.16
21.1
23.83
26.54
28.91
30.61
31.45
31.15
29.16
25.37
21.19
18.55
17.47
16.39
14.47
12.06
9.16
5.43
1.21
-2.58
-5.79
-9.25
-13.76
-19.24
-25.06
-30.62
-35.96
-41.81
-49.62
-59.64
-67.47
-66.11
-54.31
-38.4
-24.63
-14.86
-9.12
-6.42
-3.7
1.99
10.63
19.57
26.22
29.84
31.16
30.93
29.9
28.84
27.97
26.54
23.87
20.56
17.61
14.52
9.79
3.14
-4.06
-10.47
-15.91
-21.74
-29.97
-40.14
-47.4
-46.08
-35.61
-21.29
-8.87
0.07
6.6
11.13
13.52
14.65
15.51
16.11
16.85
18.89
21.64
22.62
21.05
19.31
19.25
19.94
19.97
19.33
18.18
16.15
13.14
9.53
5.53
1.28
-3.23
-8.01
-12.64
-17.2
-22.91
-30.77
-40.44
-50.26
-55.89
-51.75
-37.95
-21.62
-8.34
1.91
9.79
14.65
17.32
19.69
22.51
25.34
27.65
29.36
30.55
30.5
28.61
26.02
24.31
22.88
20.71
18.64
17.57
16.16
12.99
8.99
5.79
3.37
-0.0
-5.34
-12.37
-20.49
-30.52
-42.82
-55.06
-64.36
-68.38
-69.28
-71.53
-77.96
-84.5
-85.85
-79.64
-63.04
-36.14
0.73
41.87
79.33
95.31
81.13
70.39
73.91
75.84
67.61
50.4
27.47
6.29
-5.33
-5.99
-2.05
-1.53
-4.21
-4.34
7.08
32.14
64.31
92.44
109.65
115.48
112.1
105.84
105.38
113.12
119.56
113.51
94.38
72.46
58.32
50.98
39.13
16.33
-12.34
-41.21
-69.96
-96.68
-116.91
-130.3
-139.12
-142.49
-138.99
-131.73
-125.64
-121.19
-112.94
-94.64
-66.34
-35.04
-7.35
15.27
33.0
44.16
47.24
43.95
38.39
34.26
32.53
32.09
31.51
29.47
25.1
19.4
14.28
9.59
3.75
-3.12
-9.23
-13.6
-16.88
-20.04
-22.87
-24.47
-25.04
-25.93
-27.47
-28.95
-30.69
-34.09
-39.73
-45.85
-48.2
-43.04
-31.4
-18.04
-6.54
2.13
8.17
12.25
14.86
16.03
16.36
16.89
17.85
19.21
20.8
21.13
18.73
14.68
11.11
8.31
5.39
1.97
-1.87
-5.65
-8.92
-12.13
-15.93
-19.88
-23.31
-26.54
-30.55
-35.51
-38.89
-35.98
-25.11
-10.61
1.88
10.33
15.11
16.74
16.52
16.8
19.08
22.71
25.61
26.47
25.7
23.61
19.64
14.42
9.99
6.78
3.45
-0.31
-3.8
-7.46
-11.94
-16.38
-19.89
-23.91
-30.58
-39.31
-46.01
-45.78
-36.92
-23.09
-10.24
-1.33
4.7
9.22
11.97
12.65
12.29
12.5
14.15
16.85
19.38
20.74
20.61
19.45
18.1
16.81
15.09
12.96
11.11
9.31
6.51
2.71
-1.08
-4.78
-9.28
-14.55
-19.63
-24.25
-29.19
-35.9
-44.77
-51.97
-50.71
-38.71
-21.45
-6.26
3.86
9.87
13.19
14.62
15.4
16.59
17.86
18.8
19.8
20.67
20.78
20.5
20.2
19.28
17.78
16.71
16.12
14.96
13.28
11.83
10.21
7.76
4.78
1.61
-1.71
-4.62
-7.16
-11.28
-18.89
-28.35
-34.02
-30.66
-18.93
-4.73
7.02
15.09
19.23
19.16
16.53
14.36
14.35
16.21
18.85
20.75
20.71
18.94
16.36
13.5
10.5
7.67
5.28
3.42
1.83
-0.18
-2.76
-5.41
-8.22
-11.67
-15.58
-19.63
-24.32
-30.72
-39.57
-49.11
-53.55
-47.7
-33.11
-16.25
-2.21
7.67
14.08
18.06
20.17
21.07
22.25
24.71
27.86
30.32
31.31
30.79
29.19
27.19
25.35
23.72
22.07
20.18
17.91
15.14
11.76
7.8
3.38
-2.05
-9.5
-18.56
-27.04
-33.87
-40.72
-49.47
-58.48
-61.94
-55.02
-39.61
-22.41
-8.34
1.61
8.34
12.93
16.11
18.45
20.56
23.01
26.16
29.4
30.88
29.75
27.53
25.59
23.56
20.8
17.59
14.76
12.85
11.54
9.82
7.39
4.73
1.37
-4.04
-11.01
-17.25
-22.07
-27.09
-34.21
-43.85
-52.56
-53.17
-42.07
-24.1
-6.68
6.55
14.93
18.6
18.9
18.31
18.91
21.16
24.3
27.54
29.87
29.79
27.15
23.67
20.59
17.82
15.13
12.33
9.14
6.02
3.53
1.09
-2.14
-6.27
-11.23
-16.56
-21.21
-25.39
-30.83
-38.74
-48.45
-56.56
-56.7
-44.86
-25.37
-7.19
5.13
12.64
16.91
18.54
18.73
18.84
19.44
21.36
25.1
28.68
29.09
26.21
22.48
19.0
15.28
11.67
9.49
8.54
6.85
3.37
-0.49
-3.16
-5.31
-8.71
-13.74
-19.44
-24.96
-30.61
-38.35
-50.17
-63.59
-69.94
-61.66
-41.25
-18.55
-0.63
11.51
19.18
23.81
26.64
28.81
31.67
35.79
39.78
42.07
42.45
40.69
36.73
32.06
28.4
25.73
23.03
19.79
16.17
12.92
10.31
7.24
2.82
-2.26
-7.29
-12.71
-19.13
-26.38
-33.74
-40.51
-47.34
-56.5
-68.82
-79.09
-77.77
-60.91
-35.59
-12.16
5.07
16.69
23.29
25.67
26.54
28.57
32.23
36.86
41.74
45.38
46.03
43.6
39.69
35.85
32.74
29.89
26.4
22.33
18.75
16.28
13.74
8.85
0.97
-7.24
-12.43
-14.88
-17.97
-23.44
-30.13
-37.08
-45.53
-57.01
-69.63
-76.04
-68.46
-47.11
-20.8
1.5
16.53
25.0
28.52
29.37
30.45
33.85
38.98
43.37
45.3
45.02
43.44
40.65
36.46
31.48
26.35
21.05
15.95
11.9
8.06
3.0
-2.27
-6.02
-9.9
-16.75
-25.8
-33.85
-40.49
-48.72
-60.54
-73.01
-78.19
-68.71
-45.89
-19.67
1.17
15.13
23.9
28.18
29.25
30.31
33.8
39.23
44.4
47.79
48.5
45.94
40.86
35.22
30.0
24.83
19.84
15.56
11.39
6.13
-0.03
-5.98
-12.13
-19.91
-29.26
-38.83
-48.28
-58.35
-70.28
-84.98
-98.82
-102.19
-88.41
-62.78
-36.84
-16.35
-0.73
10.01
14.57
14.65
14.22
14.57
13.9
11.63
8.89
5.28
-1.07
-10.35
-21.83
-36.41
-54.62
-74.5
-94.39
-114.99
-134.94
-147.02
-143.72
-124.69
-95.6
-62.65
-30.32
-0.35
27.75
52.74
71.65
84.89
95.03
101.01
99.43
89.99
77.35
69.18
70.93
80.44
90.7
97.96
102.58
104.57
103.53
100.96
98.79
96.89
93.99
89.71
84.35
78.0
71.04
64.92
61.4
60.99
62.24
62.53
60.08
54.6
45.81
33.65
20.09
8.16
-1.25
-9.52
-17.15
-22.5
-24.72
-27.41
-36.7
-55.2
-78.77
-97.64
-101.33
-87.25
-64.05
-42.64
-26.54
-14.56
-7.4
-6.09
-7.59
-6.94
-2.94
2.08
6.84
11.25
13.93
13.83
12.7
12.56
12.52
10.86
8.36
6.92
6.76
6.79
6.49
6.01
5.09
3.29
0.99
-0.28
0.42
0.94
-2.83
-11.85
-22.69
-33.07
-44.48
-58.0
-69.9
-72.42
-60.18
-37.18
-14.06
1.9
10.06
12.0
9.73
6.83
6.85
10.41
15.45
20.48
25.15
27.83
26.9
24.25
22.65
21.46
18.56
14.36
10.56
7.28
3.16
-2.43
-8.81
-15.22
-21.11
-25.55
-28.15
-30.38
-34.92
-43.16
-53.04
-57.85
-50.08
-29.64
-5.32
14.31
27.53
35.99
39.59
37.74
32.46
27.43
24.78
24.07
23.66
22.03
18.65
14.3
9.76
5.3
1.51
-1.29
-3.63
-5.41
-6.22
-7.65
-11.82
-17.35
-21.2
-23.76
-28.18
-35.28
-42.65
-48.17
-52.55
-58.76
-69.12
-80.23
-82.16
-68.18
-44.05
-21.6
-6.12
4.85
13.79
19.86
22.08
21.88
21.1
20.22
18.95
16.93
14.18
12.06
12.3
15.29
19.78
23.74
25.91
27.1
28.66
30.0
29.35
26.04
21.4
17.29
13.99
10.64
7.35
4.92
2.83
-0.74
-6.57
-13.54
-20.55
-28.53
-40.1
-56.14
-71.51
-76.01
-63.62
-39.65
-15.03
4.17
18.42
29.4
37.2
41.78
44.38
46.22
47.25
47.61
48.45
49.69
49.44
46.97
44.04
42.35
41.07
37.86
31.48
22.64
12.71
2.98
-5.55
-12.82
-19.26
-24.7
-28.82
-31.65
-33.31
-34.57
-36.64
-39.4
-41.86
-44.48
-49.57
-59.36
-72.22
-79.65
-72.04
-49.67
-22.96
-0.83
15.27
26.49
32.81
35.02
35.7
36.86
38.59
40.75
43.66
46.06
45.34
41.39
36.95
33.93
31.79
29.11
24.93
19.48
13.76
8.16
2.22
-3.65
-8.53
-12.91
-18.28
-24.64
-30.63
-36.15
-43.34
-54.08
-65.57
-69.56
-59.55
-38.73
-16.65
0.62
12.41
18.15
17.4
13.95
13.63
17.99
24.09
29.34
32.98
34.43
33.19
29.87
25.87
22.29
19.02
15.27
11.28
7.93
4.64
-0.1
-6.25
-12.62
-19.22
-27.01
-35.55
-43.26
-50.2
-58.72
-70.93
-85.0
-93.0
-85.7
-62.77
-34.62
-11.72
3.79
14.76
23.04
28.65
31.77
33.63
35.67
38.6
42.29
45.5
46.2
43.7
39.74
36.01
32.49
29.15
26.91
25.91
24.91
23.57
23.08
23.0
20.4
13.91
6.03
-1.0
-8.2
-17.27
-28.0
-38.97
-48.95
-58.29
-69.96
-86.32
-102.09
-105.19
-88.95
-59.71
-29.57
-5.86
10.97
23.2
31.9
36.93
39.8
42.95
46.59
49.6
51.75
52.5
50.58
46.54
42.62
39.57
36.34
32.4
28.55
25.58
23.17
20.25
16.47
12.37
7.81
1.85
-5.24
-12.5
-20.84
-31.72
-43.47
-53.12
-61.29
-71.88
-87.1
-103.13
-110.07
-98.88
-71.17
-38.87
-12.06
8.42
25.09
37.35
44.53
49.69
56.3
64.19
71.25
76.5
79.48
78.8
73.63
65.77
58.0
51.11
44.09
36.78
30.03
23.77
17.36
11.09
5.36
-0.46
-6.71
-12.65
-17.73
-22.66
-28.67
-36.12
-43.68
-50.27
-57.23
-67.08
-80.56
-93.79
-98.24
-87.81
-66.45
-43.75
-24.36
-7.66
5.67
13.57
17.48
21.77
28.35
35.48
41.92
48.12
52.88
53.57
50.19
45.47
40.93
36.37
32.11
28.87
26.46
23.99
20.61
15.72
9.64
3.52
-2.6
-9.79
-18.11
-26.26
-33.64
-41.42
-52.02
-66.85
-81.66
-86.97
-76.75
-54.71
-29.49
-6.82
11.27
23.21
28.28
29.2
30.64
34.2
38.34
42.69
47.79
51.46
50.64
45.99
40.78
36.33
31.72
26.77
22.86
20.3
17.21
11.86
4.85
-1.9
-7.92
-15.02
-24.26
-33.92
-42.15
-50.08
-60.91
-76.46
-92.77
-99.65
-89.66
-67.08
-42.53
-21.25
-2.04
15.3
27.95
35.04
39.72
44.75
49.78
54.03
57.91
60.43
59.43
54.99
49.74
45.41
41.64
37.76
33.73
29.7
25.92
22.3
18.25
13.54
8.43
2.9
-3.25
-10.46
-19.44
-29.26
-37.43
-44.19
-53.89
-70.41
-92.23
-110.85
-114.61
-98.51
-69.92
-40.8
-16.73
2.63
17.17
26.04
31.09
36.22
42.94
49.18
52.99
54.76
54.54
50.13
40.47
28.97
20.41
16.95
18.32
20.33
14.95
-1.01
-20.79
-36.42
-44.09
-37.76
-12.43
22.15
46.54
52.24
45.53
32.67
11.88
-18.45
-49.61
-67.72
-70.09
-67.99
-69.79
-72.36
-71.1
-66.97
-62.17
-56.24
-47.86
-38.04
-29.44
-21.82
-12.54
-2.29
5.94
13.05
22.27
33.05
42.22
48.22
51.02
51.02
49.8
49.67
51.01
50.73
44.5
30.4
9.74
-15.58
-43.09
-65.22
-71.53
-60.29
-41.36
-23.94
-8.68
5.76
16.54
20.7
20.94
22.5
26.23
28.92
28.96
27.02
22.88
15.9
7.38
-0.1
-4.91
-7.42
-9.36
-12.3
-16.74
-22.69
-30.2
-39.78
-52.53
-67.37
-76.97
-71.51
-49.27
-19.09
8.92
30.48
44.7
51.1
51.46
50.6
52.5
56.92
61.2
63.52
62.83
58.17
50.38
42.24
35.37
28.84
21.57
13.98
6.44
-1.94
-11.97
-23.24
-35.67
-51.21
-70.87
-88.76
-93.6
-79.97
-53.95
-25.47
0.16
21.43
37.46
47.96
53.99
57.91
61.99
66.39
69.45
69.68
66.91
61.98
55.62
48.13
39.89
31.42
23.32
15.95
8.89
1.06
-8.07
-18.31
-29.74
-43.29
-59.57
-74.76
-79.55
-67.63
-43.43
-16.93
6.04
24.62
38.29
45.96
48.43
48.79
49.93
52.31
54.21
54.05
51.54
46.97
40.55
33.09
25.77
19.0
12.53
6.23
-0.12
-7.26
-15.89
-25.51
-35.29
-46.21
-59.4
-70.7
-71.51
-58.07
-36.0
-13.44
5.79
20.64
29.86
33.74
35.39
37.33
39.41
41.11
42.7
43.31
41.49
37.67
33.59
30.21
27.3
24.04
19.87
15.63
12.85
11.46
9.68
6.93
4.35
2.32
0.04
-2.7
-5.26
-7.19
-8.73
-11.11
-15.32
-20.3
-24.39
-27.81
-31.86
-36.91
-42.38
-47.41
-51.98
-58.24
-68.13
-78.48
-80.95
-70.23
-50.29
-29.77
-13.59
-1.71
7.06
13.23
17.5
20.72
23.15
24.95
26.85
28.96
30.05
29.13
26.65
23.87
21.8
20.25
18.44
16.31
14.42
12.92
11.61
10.21
8.26
5.66
2.81
-0.05
-2.88
-5.7
-8.6
-11.16
-13.09
-15.43
-19.33
-23.9
-27.42
-30.34
-34.73
-41.5
-48.81
-52.12
-46.91
-33.38
-17.32
-4.68
3.06
7.17
8.52
7.95
7.57
8.94
11.13
12.64
13.91
15.53
15.97
13.57
9.89
8.04
8.14
7.55
5.42
3.4
1.95
-0.25
-3.33
-6.0
-7.94
-9.8
-11.98
-14.74
-18.08
-21.47
-24.38
-27.26
-31.78
-39.5
-48.61
-53.04
-47.83
-34.77
-20.02
-7.84
0.73
6.14
9.56
11.94
13.41
14.69
16.9
19.72
21.91
22.95
22.64
20.65
17.44
14.64
13.42
13.15
12.28
10.41
8.69
7.65
6.26
3.79
0.87
-1.69
-4.16
-7.08
-9.71
-10.97
-11.77
-14.27
-18.38
-22.14
-25.04
-28.66
-34.47
-42.36
-49.39
-50.08
-41.11
-25.74
-10.76
-0.06
6.75
11.01
13.41
14.84
16.26
17.9
19.51
21.31
23.52
25.25
25.0
22.38
18.89
16.73
16.47
16.5
15.15
12.61
10.05
7.86
5.79
4.16
3.28
2.24
0.2
-2.13
-4.04
-6.13
-8.82
-12.01
-16.0
-20.6
-24.65
-28.19
-33.31
-41.53
-49.99
-52.05
-43.68
-28.22
-12.8
-1.99
4.11
7.53
9.72
11.04
12.04
13.73
16.32
19.16
21.47
22.41
21.58
19.87
18.53
17.56
16.12
14.36
13.17
12.67
11.89
9.89
6.9
4.08
2.04
0.11
-2.49
-5.54
-8.62
-12.11
-16.6
-21.57
-25.58
-28.58
-33.02
-40.95
-49.79
-52.67
-45.03
-29.7
-13.66
-1.24
7.19
12.02
13.76
14.29
15.44
17.52
20.43
24.17
27.48
28.16
25.91
22.58
19.84
18.01
16.7
15.45
14.17
13.19
12.47
11.26
9.18
6.75
4.46
1.91
-1.34
-4.75
-7.67
-10.52
-14.49
-19.97
-25.7
-30.24
-34.6
-41.81
-52.57
-61.78
-61.75
-50.1
-32.31
-15.62
-3.0
6.02
12.11
15.67
17.69
19.49
22.09
25.71
29.52
32.11
32.78
31.82
29.93
27.92
26.46
25.31
23.8
22.06
20.75
19.63
17.75
14.87
11.54
8.02
4.23
0.41
-3.21
-7.15
-12.23
-18.41
-24.55
-29.74
-35.05
-43.34
-55.97
-69.0
-74.42
-67.12
-50.15
-31.42
-16.89
-8.11
-3.8
-1.88
-0.51
2.26
8.39
17.64
27.29
35.05
40.05
41.75
40.54
38.47
37.5
37.82
38.38
38.21
37.42
36.41
34.71
31.34
26.28
19.92
12.19
3.87
-3.24
-9.61
-19.54
-37.0
-61.09
-84.63
-95.86
-86.53
-60.73
-31.76
-9.33
5.85
16.75
24.7
29.37
31.28
32.82
36.05
40.29
43.5
44.68
43.49
40.01
35.85
32.85
30.94
29.05
26.86
24.39
21.53
18.52
15.33
11.37
6.27
0.4
-5.66
-11.52
-17.16
-23.13
-29.76
-36.53
-43.64
-53.25
-66.35
-77.82
-78.28
-63.82
-41.23
-20.12
-3.72
9.25
19.11
25.53
29.79
33.63
37.66
41.62
45.04
47.45
48.17
46.69
43.72
40.77
38.21
35.35
32.44
30.33
28.44
25.65
22.33
19.7
17.58
14.72
11.03
7.28
3.37
-1.21
-5.84
-9.54
-12.83
-17.46
-24.37
-32.36
-39.64
-46.21
-54.07
-65.16
-77.67
-83.84
-75.76
-55.04
-31.53
-12.49
1.64
12.31
19.79
24.6
28.05
31.22
34.53
38.11
41.54
43.4
42.31
38.86
35.44
33.19
30.94
27.88
24.97
22.96
21.32
19.17
15.98
11.67
6.71
2.05
-1.69
-5.02
-8.97
-13.76
-18.81
-23.84
-29.09
-35.22
-43.52
-54.1
-62.49
-61.14
-47.29
-26.75
-7.72
5.76
13.58
16.6
16.25
15.43
17.07
20.92
24.51
27.1
29.29
29.91
27.59
24.06
22.02
21.06
18.95
15.68
12.87
10.41
6.9
2.19
-2.95
-8.26
-14.01
-20.2
-26.28
-31.93
-38.07
-46.58
-58.22
-69.79
-73.64
-63.82
-43.36
-21.97
-6.37
3.94
12.31
19.91
25.49
28.51
30.33
32.41
35.24
38.4
40.24
39.09
35.66
32.43
30.65
29.41
27.39
24.6
22.12
20.26
17.93
14.57
11.01
7.48
2.91
-3.01
-8.87
-13.49
-17.43
-21.8
-26.6
-31.38
-36.61
-43.25
-52.24
-63.27
-71.1
-67.42
-50.74
-29.22
-11.0
2.06
10.89
15.96
18.06
19.26
21.63
25.49
29.35
32.06
33.53
33.26
30.45
26.3
23.46
22.25
20.39
17.24
14.41
12.19
9.2
5.06
0.64
-3.48
-7.78
-13.17
-19.85
-26.79
-32.8
-38.13
-45.32
-56.67
-68.96
-73.53
-64.97
-47.4
-29.21
-14.83
-3.93
4.5
10.17
12.77
13.83
16.64
23.47
33.28
42.71
48.46
48.8
44.78
39.72
35.92
32.57
28.49
24.7
22.37
20.93
19.55
18.27
17.18
16.3
15.31
12.81
8.03
2.62
-1.64
-6.1
-13.08
-21.78
-29.65
-36.7
-45.27
-56.21
-66.91
-71.66
-65.1
-47.96
-27.41
-10.1
2.39
11.58
18.77
24.16
27.76
30.39
32.98
35.64
38.1
39.74
39.34
36.55
33.02
30.52
28.66
26.09
22.62
19.09
16.59
15.7
15.24
13.15
9.47
6.29
4.21
1.34
-3.47
-8.63
-12.18
-14.78
-18.48
-23.48
-28.48
-33.08
-38.01
-44.8
-54.32
-62.34
-60.3
-45.42
-25.35
-8.99
1.8
9.03
13.44
15.32
16.7
19.4
22.76
25.21
26.85
28.16
28.01
25.35
21.72
19.54
18.52
16.27
12.22
8.67
7.1
5.74
2.58
-1.66
-5.46
-9.2
-13.88
-18.97
-23.5
-27.71
-32.78
-40.01
-49.45
-57.39
-57.06
-45.45
-27.51
-10.71
1.94
10.87
16.08
17.79
18.15
19.4
21.68
24.28
27.17
30.04
31.3
29.83
26.54
23.08
20.01
17.12
14.73
13.39
12.66
11.29
8.79
5.89
3.21
0.21
-3.69
-7.97
-11.85
-15.5
-19.69
-24.6
-29.53
-34.4
-40.76
-50.04
-60.13
-64.83
-58.66
-42.63
-24.08
-9.82
-0.56
7.0
14.22
19.68
22.96
25.45
27.62
29.23
31.0
32.86
32.88
30.3
26.91
24.21
22.03
20.08
18.58
17.6
16.71
15.08
12.31
9.03
6.02
2.9
-1.05
-5.52
-9.94
-14.86
-20.95
-27.46
-33.34
-38.94
-45.07
-52.69
-63.29
-75.09
-80.45
-72.67
-54.16
-33.5
-16.44
-3.07
8.32
17.57
23.64
27.04
29.34
31.51
34.49
38.67
42.03
41.91
38.93
36.05
34.42
33.25
31.87
29.77
26.12
20.74
14.57
9.01
4.92
2.04
-0.21
-1.89
-3.33
-5.32
-8.09
-11.35
-15.43
-20.53
-26.54
-34.35
-44.85
-55.29
-58.97
-51.26
-34.9
-17.17
-2.9
7.25
13.74
17.11
18.7
20.16
22.33
25.1
27.72
29.52
30.16
29.46
27.38
24.3
21.12
18.7
17.1
15.34
12.33
8.28
4.25
0.38
-4.48
-11.04
-18.39
-24.99
-30.86
-38.39
-49.44
-60.63
-64.23
-55.63
-38.06
-18.88
-3.51
7.11
14.72
20.44
23.91
25.39
26.45
28.01
29.44
29.46
26.75
21.33
15.39
11.01
8.0
5.08
1.94
-0.71
-2.0
-1.85
-1.38
-1.81
-3.14
-5.03
-8.18
-13.4
-19.84
-25.64
-30.43
-35.67
-42.51
-50.5
-57.01
-56.71
-44.98
-24.16
-3.21
11.19
19.66
25.81
31.06
35.98
43.52
56.64
73.5
88.49
98.08
102.87
105.03
106.46
104.62
89.37
52.92
2.54
-46.72
-87.37
-116.74
-127.18
-112.36
-81.38
-56.07
-48.46
-47.91
-37.9
-15.82
12.74
44.44
72.96
88.57
89.48
82.24
70.09
52.08
31.87
15.69
2.01
-17.4
-45.05
-73.13
-90.34
-89.41
-71.42
-46.03
-23.67
-7.49
4.45
13.28
19.72
25.82
32.19
36.93
38.95
39.4
39.14
37.5
33.73
28.0
21.1
13.5
4.72
-5.65
-16.59
-26.61
-35.96
-46.2
-58.01
-69.16
-74.17
-68.41
-53.67
-37.19
-24.48
-15.73
-9.06
-2.78
4.46
12.48
19.79
26.3
33.39
40.54
45.2
46.37
45.44
43.74
41.84
40.57
40.76
42.05
42.87
41.79
37.96
31.27
24.39
21.56
21.92
18.41
7.36
-6.7
-18.6
-28.99
-40.74
-54.2
-67.52
-77.04
-77.07
-64.78
-45.59
-28.51
-16.88
-8.38
-1.62
2.8
5.54
8.31
12.02
16.68
21.77
25.89
27.26
25.44
22.43
20.71
20.32
19.41
17.5
16.08
15.89
15.79
14.27
11.32
8.08
5.07
1.89
-1.69
-5.44
-9.17
-12.96
-17.23
-22.5
-28.14
-32.84
-37.37
-44.82
-56.76
-69.67
-75.8
-69.23
-51.97
-32.3
-16.38
-4.58
4.65
11.48
16.03
19.6
23.17
26.42
29.33
32.48
35.24
35.83
33.66
29.94
26.43
23.94
22.08
20.06
17.74
15.7
13.96
11.48
7.74
3.54
-0.48
-4.79
-9.72
-14.87
-20.04
-25.53
-32.02
-40.43
-49.81
-55.19
-50.67
-35.99
-17.48
-1.81
8.81
15.12
17.91
18.17
18.1
19.8
23.28
27.23
30.81
33.17
32.73
29.13
24.6
21.62
20.34
19.1
16.9
14.52
12.67
10.55
7.19
2.71
-2.39
-7.54
-12.24
-17.26
-23.77
-30.85
-36.89
-43.18
-52.91
-65.77
-75.63
-74.78
-61.28
-41.4
-23.04
-8.7
3.07
12.99
20.85
27.11
32.31
36.22
38.72
40.48
41.88
42.16
40.2
36.04
31.25
27.56
25.23
23.38
21.6
20.09
18.47
16.26
13.81
11.52
9.06
6.29
3.32
-0.25
-4.67
-8.96
-12.67
-17.12
-23.19
-29.68
-35.49
-41.49
-49.74
-61.4
-73.35
-77.22
-66.81
-46.05
-25.31
-10.76
-1.04
7.33
15.17
21.27
25.11
27.77
30.57
34.13
38.07
40.7
40.16
36.88
33.43
31.07
29.04
26.85
24.91
23.21
21.42
19.49
17.07
13.86
10.5
7.38
3.56
-1.61
-6.83
-10.68
-14.09
-19.03
-25.31
-30.94
-35.67
-41.91
-51.96
-64.34
-72.42
-68.57
-52.2
-31.3
-13.85
-1.4
7.82
14.63
19.3
22.47
24.83
27.14
30.21
33.84
36.61
37.17
35.24
32.03
29.4
27.89
26.27
23.53
20.55
18.62
17.4
15.55
12.69
9.59
6.53
3.08
-0.74
-4.54
-8.3
-12.3
-16.96
-22.3
-27.8
-33.11
-39.08
-47.45
-57.55
-63.1
-56.87
-39.91
-20.94
-6.36
3.63
10.38
14.12
15.91
17.6
20.01
22.85
25.89
28.95
31.16
31.2
28.5
24.39
21.24
19.7
18.12
15.62
13.34
11.79
9.55
5.65
1.1
-2.93
-6.76
-11.35
-17.04
-23.06
-28.3
-32.98
-39.18
-48.82
-59.79
-64.72
-57.06
-39.29
-20.42
-5.8
4.89
12.3
16.71
19.85
22.78
25.24
27.82
31.39
34.86
36.43
35.62
32.89
29.23
26.04
23.92
22.3
20.58
18.62
16.48
14.2
11.3
7.06
1.88
-2.99
-7.21
-11.81
-17.77
-24.55
-30.64
-35.85
-42.12
-51.38
-62.02
-68.13
-63.82
-48.79
-29.08
-11.78
0.45
9.1
15.61
20.16
23.2
25.7
28.43
32.02
35.92
38.37
38.18
35.92
32.96
30.68
29.34
27.63
24.69
21.67
19.68
18.0
15.63
12.82
9.99
6.57
2.13
-2.44
-6.32
-10.29
-15.42
-20.81
-25.2
-29.95
-37.2
-46.28
-54.89
-62.76
-71.72
-82.81
-93.72
-98.04
-89.44
-68.68
-43.76
-21.79
-3.73
12.16
25.7
35.8
43.98
53.0
62.58
69.1
69.75
65.21
60.17
60.15
64.43
65.19
57.08
43.48
31.28
24.32
22.59
23.38
22.9
19.59
15.21
11.48
7.78
3.26
-1.57
-6.2
-10.98
-16.21
-22.08
-28.22
-33.9
-39.79
-47.77
-56.73
-60.87
-55.04
-40.82
-25.04
-12.72
-4.11
1.84
5.5
8.05
11.36
15.76
19.98
23.31
26.43
29.32
29.77
26.25
20.98
17.01
14.04
9.88
4.27
-1.03
-4.95
-8.24
-12.34
-18.97
-28.54
-36.64
-37.0
-30.49
-24.68
-24.17
-28.33
-35.01
-39.41
-34.78
-20.15
-2.78
9.79
16.8
21.58
25.57
27.84
28.7
30.27
33.73
38.22
42.09
43.48
40.07
31.37
22.93
22.52
28.16
28.3
17.73
4.19
-2.99
-2.3
2.79
8.13
10.53
8.91
4.35
-1.37
-7.08
-12.9
-19.94
-28.7
-39.0
-50.72
-61.21
-63.91
-54.85
-38.57
-23.22
-12.39
-4.69
1.78
7.06
10.79
13.74
17.21
21.62
26.13
29.57
31.48
32.07
31.41
29.6
27.31
25.12
22.9
20.47
18.25
16.37
14.07
10.97
8.11
6.34
4.59
1.21
-3.64
-8.28
-11.82
-15.21
-19.57
-24.73
-29.68
-34.44
-41.05
-51.53
-63.44
-69.2
-63.16
-47.71
-30.16
-15.55
-4.63
3.48
9.27
13.27
16.65
20.58
25.05
28.81
31.1
32.5
33.25
32.41
29.76
27.05
25.65
24.66
22.91
20.84
19.09
17.21
14.82
12.24
9.48
6.37
3.36
0.54
-2.81
-6.83
-10.86
-14.77
-19.06
-23.81
-28.84
-34.92
-43.12
-51.92
-55.64
-49.07
-33.95
-17.48
-4.59
4.41
9.74
11.18
10.94
12.47
16.19
19.94
23.11
26.3
28.17
26.97
23.9
21.57
20.5
19.4
17.7
15.74
13.55
10.93
8.09
5.11
1.54
-2.85
-7.48
-11.72
-15.69
-20.04
-25.01
-30.18
-35.28
-41.38
-49.96
-59.81
-65.22
-60.12
-44.81
-26.17
-10.75
-0.03
7.46
12.94
16.93
20.21
23.34
26.18
28.59
31.13
33.65
34.33
32.21
29.33
27.89
27.23
25.62
23.02
20.42
18.08
15.84
13.55
11.02
8.39
6.16
4.22
1.71
-2.1
-7.11
-12.4
-17.1
-21.38
-25.8
-30.53
-35.82
-42.62
-51.9
-62.28
-67.95
-62.5
-46.5
-27.85
-13.35
-3.55
4.19
11.0
16.35
20.19
23.35
26.53
29.91
33.21
35.43
35.4
33.25
30.33
27.81
25.92
24.26
22.27
20.07
18.45
17.08
14.99
12.81
11.54
10.0
6.64
2.24
-1.66
-5.04
-8.67
-12.96
-18.02
-23.55
-29.05
-34.87
-42.7
-52.84
-60.62
-58.74
-45.73
-28.36
-13.77
-3.31
4.6
10.3
13.45
15.02
16.95
20.13
23.87
27.3
29.87
30.44
28.52
25.84
24.02
22.12
18.9
15.4
13.13
11.7
9.64
6.31
2.21
-2.11
-6.88
-12.51
-18.71
-24.76
-30.62
-37.62
-46.95
-56.24
-58.96
-50.48
-34.18
-17.64
-4.88
4.56
11.51
16.1
19.07
21.46
23.74
26.06
28.81
32.11
34.72
34.78
32.23
29.02
26.48
24.21
21.78
19.42
17.18
15.02
12.61
8.99
3.73
-2.09
-7.42
-12.62
-18.4
-24.38
-30.03
-35.84
-42.93
-52.57
-63.75
-70.36
-65.47
-50.07
-32.26
-17.89
-7.33
0.42
5.7
9.23
12.08
15.02
18.7
23.52
28.66
32.52
34.82
37.01
40.29
44.55
48.65
50.97
50.33
47.14
42.89
38.12
32.08
24.66
17.01
9.58
1.09
-9.24
-19.67
-28.16
-35.7
-45.44
-58.08
-68.58
-69.43
-58.31
-40.75
-23.57
-9.29
1.94
9.64
14.14
17.11
20.04
23.38
26.97
30.04
31.62
31.32
29.48
26.69
23.37
19.67
15.68
11.7
8.16
4.83
0.76
-4.33
-9.61
-14.58
-19.99
-26.85
-35.54
-44.02
-46.86
-39.8
-25.44
-10.57
1.14
9.82
15.28
17.04
17.15
18.47
21.55
25.17
28.36
30.68
31.42
29.69
26.01
22.71
21.05
19.41
16.35
12.88
9.89
6.5
2.35
-1.53
-5.26
-10.35
-16.66
-22.4
-27.59
-34.22
-43.48
-53.53
-58.78
-53.32
-37.92
-19.99
-5.32
5.51
13.08
17.34
19.39
21.02
22.88
24.76
26.69
28.68
29.87
29.13
26.59
23.83
22.0
20.69
19.03
16.89
14.54
11.74
7.96
3.5
-0.52
-3.83
-7.64
-12.79
-18.29
-23.26
-29.03
-37.33
-45.94
-48.58
-41.2
-26.42
-10.43
2.07
9.34
11.76
11.12
10.41
12.17
16.11
19.53
21.05
21.55
21.33
19.65
16.72
13.66
11.0
8.52
5.84
2.79
-0.48
-3.99
-8.36
-14.02
-20.31
-26.19
-31.98
-39.62
-49.77
-58.27
-58.27
-47.34
-30.5
-14.57
-2.0
8.09
15.75
20.01
21.5
22.52
24.65
27.57
30.21
31.87
31.97
30.18
27.27
24.43
21.89
19.44
17.29
15.49
13.62
11.36
8.66
5.41
1.35
-3.44
-8.31
-12.66
-17.04
-22.36
-28.37
-34.27
-40.46
-48.48
-59.25
-70.5
-76.18
-71.14
-56.99
-40.33
-26.22
-15.71
-8.02
-2.1
3.05
8.46
14.16
19.08
22.97
27.35
33.02
38.65
42.92
46.26
49.32
50.71
48.35
43.38
40.2
40.58
41.47
39.96
36.36
31.72
26.67
22.33
18.23
11.2
-0.36
-13.54
-24.8
-33.72
-41.76
-50.57
-60.47
-67.49
-64.75
-50.57
-31.84
-16.63
-6.67
0.67
6.7
10.77
13.25
15.57
18.13
20.62
23.28
25.65
26.35
25.0
22.77
20.79
19.05
17.31
15.53
13.58
11.32
9.23
7.86
6.64
4.61
1.66
-2.09
-6.52
-10.8
-14.4
-17.92
-21.66
-25.58
-30.97
-38.85
-46.61
-48.8
-41.99
-27.93
-12.2
0.13
7.33
10.13
10.03
9.26
10.02
12.5
15.49
18.45
20.93
21.51
19.73
17.06
14.72
12.57
10.3
7.93
5.93
4.91
4.2
2.21
-1.7
-6.8
-12.11
-16.85
-21.07
-26.06
-33.06
-42.11
-50.96
-54.1
-46.75
-31.2
-14.95
-2.73
5.68
11.29
14.29
15.48
16.6
18.88
21.93
24.44
26.05
27.04
26.7
24.32
21.32
19.27
17.41
14.77
12.28
10.65
8.82
5.93
2.35
-1.48
-5.28
-8.86
-12.78
-17.66
-22.98
-27.86
-32.78
-39.52
-49.31
-59.69
-63.68
-55.83
-39.04
-21.58
-8.5
0.75
7.98
13.04
15.4
16.34
17.78
19.93
22.15
24.37
25.86
24.92
21.47
17.69
14.6
10.96
6.77
3.92
2.54
0.73
-1.95
-4.24
-5.33
-4.98
-2.94
0.6
4.21
5.88
4.8
1.21
-5.16
-14.42
-24.77
-33.17
-36.65
-33.38
-24.45
-13.75
-4.39
3.38
10.4
16.19
19.74
21.61
23.53
26.15
28.73
30.78
32.35
32.82
31.37
28.6
25.99
23.96
21.95
19.66
17.26
15.17
13.62
11.79
8.28
3.35
-1.38
-5.4
-9.54
-13.92
-17.92
-21.72
-26.48
-33.51
-42.92
-51.13
-51.55
-41.34
-25.07
-9.57
1.87
9.04
12.55
13.66
14.06
15.14
17.7
21.52
25.24
27.51
27.85
25.97
22.16
18.24
15.95
14.47
11.82
7.85
4.12
1.19
-1.96
-6.48
-12.56
-19.34
-25.78
-32.33
-41.07
-52.03
-59.56
-56.73
-43.35
-25.94
-10.39
1.7
10.69
16.68
19.92
21.79
23.9
26.65
29.53
32.19
34.0
33.86
31.59
28.43
25.59
23.09
20.26
16.78
13.02
9.48
6.0
1.81
-3.34
-8.8
-14.21
-20.0
-26.43
-33.09
-39.96
-48.18
-57.86
-64.66
-61.77
-47.75
-29.09
-12.93
-0.77
8.86
15.93
20.01
22.82
26.42
30.47
33.73
36.29
38.24
38.21
35.43
31.55
28.72
27.29
26.28
24.65
22.05
19.14
16.91
15.04
12.33
8.68
5.05
1.82
-1.25
-4.39
-7.77
-11.68
-16.42
-21.76
-26.91
-31.56
-37.22
-46.21
-58.51
-69.14
-70.48
-59.26
-40.48
-22.02
-7.47
3.94
12.9
18.82
22.01
24.41
27.63
31.61
35.15
37.35
37.99
36.95
34.41
31.47
29.19
27.38
25.46
23.72
22.63
21.55
19.43
16.18
12.82
10.27
8.25
5.74
2.12
-2.35
-6.95
-11.17
-15.3
-19.87
-24.69
-29.63
-35.89
-44.74
-54.19
-58.29
-52.05
-36.91
-19.26
-4.4
6.14
12.71
15.98
17.2
18.28
20.58
23.62
26.21
27.95
28.77
28.0
25.25
21.71
19.2
18.17
17.34
15.61
13.23
11.07
9.44
7.67
4.62
0.38
-3.82
-7.83
-12.88
-18.93
-24.56
-29.32
-34.19
-40.7
-50.01
-60.16
-64.73
-57.93
-41.34
-22.93
-8.92
0.78
8.86
15.47
19.59
22.26
24.94
27.53
29.91
32.64
34.77
34.26
31.14
27.44
24.46
22.08
20.02
18.13
16.3
14.44
12.21
9.22
5.9
3.0
0.47
-2.27
-5.36
-8.65
-12.32
-16.59
-21.32
-26.09
-31.1
-37.78
-47.35
-57.32
-60.9
-53.16
-36.9
-19.82
-7.06
1.45
7.81
13.1
17.2
20.05
22.32
24.84
27.88
30.73
32.0
30.8
27.78
24.63
22.53
21.22
19.71
17.55
15.33
14.0
13.4
12.04
9.18
5.59
2.03
-1.5
-4.69
-7.42
-10.67
-15.18
-20.0
-24.18
-28.45
-34.1
-41.85
-50.98
-56.95
-53.3
-39.34
-22.23
-8.54
1.13
8.05
12.01
13.71
15.24
17.33
19.56
22.34
25.68
27.91
27.84
26.0
23.15
19.8
16.72
14.34
12.41
10.45
8.2
5.7
2.87
-0.49
-4.37
-8.6
-13.33
-18.47
-23.36
-28.02
-34.05
-42.62
-50.98
-52.71
-43.93
-27.91
-11.72
0.3
8.06
12.99
15.52
15.99
16.2
17.97
20.92
23.9
26.74
28.51
27.57
24.64
22.03
20.18
17.79
14.74
11.85
9.55
7.73
5.65
2.12
-2.77
-7.35
-11.13
-15.44
-20.88
-26.52
-31.76
-37.58
-45.48
-55.42
-63.47
-63.08
-51.55
-33.7
-16.79
-4.02
5.1
11.52
15.92
19.3
22.32
25.05
27.82
31.28
34.86
36.35
34.66
31.39
28.54
26.28
24.23
22.52
21.16
19.71
17.61
14.44
10.9
8.23
6.1
3.0
-1.14
-4.98
-8.68
-13.91
-20.66
-26.97
-32.18
-37.56
-44.66
-54.89
-66.65
-72.42
-64.69
-45.37
-23.85
-7.34
3.01
9.35
14.2
18.56
22.03
24.78
27.73
31.12
34.55
37.18
37.59
35.17
31.39
28.44
26.88
25.64
23.53
20.52
17.46
15.05
13.25
11.63
9.47
5.76
0.76
-3.44
-6.58
-11.2
-17.86
-23.99
-28.68
-34.1
-42.43
-53.69
-63.76
-65.06
-53.51
-33.84
-14.81
-1.24
7.35
12.64
15.07
15.59
16.82
20.38
25.16
29.67
33.18
34.5
32.89
29.77
27.17
25.15
22.53
19.14
15.99
13.55
11.01
7.4
2.88
-1.86
-6.75
-12.49
-19.49
-26.73
-33.17
-39.97
-49.54
-60.96
-67.71
-62.91
-46.82
-26.81
-9.73
2.75
11.86
18.3
22.37
25.18
28.1
31.69
35.75
39.6
41.73
40.9
37.89
34.79
32.65
30.8
28.39
25.4
22.51
20.16
18.27
16.33
13.45
9.13
3.98
-1.12
-5.88
-10.41
-15.28
-21.3
-28.11
-34.38
-40.22
-47.78
-58.69
-71.55
-80.51
-78.11
-62.12
-38.8
-17.29
-1.85
8.67
16.25
21.75
25.9
29.26
32.14
35.27
39.33
43.24
44.85
43.25
39.68
36.26
33.83
31.43
28.36
25.54
24.0
22.92
20.92
18.01
14.75
10.95
6.56
1.89
-3.02
-7.73
-11.54
-15.68
-22.34
-30.52
-37.18
-42.79
-51.36
-64.23
-76.03
-78.09
-66.11
-44.7
-23.09
-6.8
4.42
12.5
18.38
22.6
26.18
30.03
34.1
37.91
40.83
41.98
40.82
37.9
34.45
31.22
28.35
25.93
23.97
21.99
19.26
16.03
13.07
10.15
6.51
2.13
-2.17
-5.81
-9.35
-14.11
-20.17
-26.09
-31.16
-36.78
-44.88
-55.51
-64.86
-65.93
-54.47
-34.3
-14.34
0.02
9.33
15.1
17.35
17.37
18.42
21.97
26.65
30.98
34.19
35.03
33.0
29.79
27.09
24.76
22.15
19.27
16.45
14.04
11.62
7.82
2.41
-2.78
-6.79
-11.51
-18.51
-26.53
-33.78
-40.49
-48.55
-59.69
-72.3
-79.0
-72.1
-52.89
-30.45
-11.95
1.47
11.17
18.12
22.89
26.15
29.04
32.49
36.31
39.65
41.76
41.91
39.77
36.3
33.31
31.41
29.46
26.73
23.88
21.61
19.51
16.88
13.67
10.53
7.74
4.55
0.12
-5.23
-10.33
-15.08
-20.51
-27.06
-33.81
-40.4
-48.18
-59.02
-72.65
-84.11
-84.94
-71.24
-49.11
-28.44
-13.36
-1.87
8.14
16.57
23.22
28.76
33.63
37.72
41.12
43.9
45.15
43.73
40.2
36.8
34.84
33.34
31.14
28.92
27.46
25.96
23.38
19.77
15.8
12.18
8.95
5.1
0.1
-4.99
-9.33
-14.03
-20.35
-27.72
-34.72
-41.11
-48.41
-58.93
-71.97
-80.45
-75.98
-58.77
-37.3
-18.49
-3.57
8.03
16.66
23.0
27.62
30.85
33.7
37.14
40.7
42.82
42.46
40.09
37.19
34.59
32.19
29.9
27.74
25.38
22.75
20.33
17.76
13.69
8.01
2.52
-1.37
-4.35
-8.06
-13.28
-19.36
-24.91
-29.97
-36.78
-47.21
-58.83
-64.5
-58.28
-41.93
-23.02
-7.37
4.12
12.38
17.79
20.74
22.66
25.17
28.63
32.46
35.92
37.93
37.29
33.97
29.51
25.82
23.48
21.37
18.45
15.32
13.11
11.2
7.74
2.3
-3.47
-8.56
-13.71
-19.52
-25.7
-32.07
-38.91
-46.89
-57.15
-68.52
-74.83
-69.22
-52.2
-31.78
-14.9
-2.34
8.19
17.22
23.64
27.62
30.79
33.85
36.7
39.54
41.64
41.19
38.13
34.52
31.65
29.01
25.9
22.45
18.99
15.42
11.48
7.22
2.81
-1.86
-7.0
-12.62
-18.81
-26.04
-34.26
-42.2
-48.96
-55.44
-63.62
-74.52
-85.04
-87.13
-74.57
-50.81
-25.67
-5.58
9.16
20.08
28.07
33.89
38.0
40.38
41.26
41.71
42.44
42.45
40.3
36.47
32.61
28.96
24.72
20.71
18.8
18.98
19.39
19.09
18.48
17.77
16.69
14.66
10.71
4.61
-2.43
-9.56
-17.65
-27.19
-35.02
-35.52
-27.2
-15.23
-5.19
2.05
7.21
9.43
8.79
8.27
10.33
13.85
16.63
18.65
20.31
20.33
18.12
15.22
12.82
10.49
7.66
4.3
0.73
-2.47
-5.57
-9.97
-16.05
-22.17
-27.31
-32.93
-41.12
-51.96
-61.58
-63.18
-53.56
-37.27
-21.34
-8.4
2.37
11.18
17.36
21.22
24.08
26.83
29.35
31.65
33.88
35.25
34.61
32.01
28.7
25.95
24.09
22.46
20.44
18.25
16.2
13.94
11.19
8.19
5.06
1.77
-1.82
-5.8
-9.93
-13.83
-17.75
-22.3
-27.46
-32.89
-38.84
-46.45
-56.71
-67.39
-71.86
-64.75
-48.6
-31.46
-18.22
-7.99
0.92
8.01
12.82
16.03
17.92
18.83
20.72
24.78
28.99
30.59
30.09
30.72
34.55
40.29
45.03
46.8
44.88
39.79
33.47
27.45
21.31
14.76
9.29
5.73
2.74
-0.82
-4.61
-8.16
-11.74
-16.03
-21.69
-28.13
-33.43
-37.3
-42.54
-51.6
-61.98
-66.33
-58.93
-42.4
-25.22
-12.6
-3.71
3.51
9.22
13.08
15.45
17.2
19.34
22.4
25.72
27.38
25.99
22.68
19.86
18.04
16.23
14.3
12.67
10.79
7.81
3.73
-0.26
-3.34
-6.57
-11.45
-17.29
-22.24
-26.5
-32.52
-41.51
-49.88
-50.52
-40.04
-23.33
-8.14
2.36
9.11
13.15
15.26
16.82
18.89
21.42
24.08
26.56
28.09
27.72
25.54
22.81
20.83
19.77
18.58
16.4
13.85
11.91
10.34
8.17
4.9
0.77
-3.42
-6.87
-9.8
-13.53
-19.02
-25.32
-30.57
-34.82
-40.3
-49.07
-60.31
-68.17
-65.25
-51.02
-32.97
-17.93
-6.78
2.35
10.21
16.24
20.2
22.95
25.45
27.99
30.54
32.86
34.02
33.14
30.6
28.07
26.71
25.89
24.44
22.53
21.01
19.7
17.59
14.38
10.87
7.86
5.12
1.85
-2.18
-6.44
-10.53
-14.52
-19.03
-24.62
-30.48
-35.45
-40.69
-49.07
-60.61
-69.39
-67.46
-53.38
-34.56
-19.17
-8.65
-0.08
8.07
14.71
19.05
22.06
25.35
29.27
32.92
35.39
36.18
34.75
31.54
28.87
28.08
27.36
25.12
22.69
21.28
19.99
18.1
15.88
13.25
10.04
6.95
4.21
0.97
-3.02
-6.98
-10.86
-15.74
-21.57
-26.82
-31.2
-36.81
-45.78
-56.54
-62.7
-57.8
-42.67
-24.74
-10.27
-0.39
6.02
9.7
11.31
12.3
14.17
17.11
20.05
21.97
22.39
21.14
18.47
15.34
13.12
12.52
12.63
12.02
10.8
10.55
11.7
12.17
9.95
5.78
1.27
-4.03
-11.82
-22.06
-33.19
-44.58
-57.28
-72.47
-88.92
-101.48
-104.23
-96.74
-84.98
-75.45
-70.73
-69.87
-69.94
-66.97
-58.99
-48.65
-39.38
-29.56
-14.02
9.44
36.78
59.16
70.31
73.93
78.7
88.07
101.19
117.93
135.72
148.32
152.32
149.53
143.63
138.41
136.04
134.84
130.94
121.91
106.97
86.28
62.19
38.63
17.97
0.38
-14.57
-28.05
-41.05
-50.12
-49.09
-38.32
-25.59
-15.47
-5.49
6.59
18.89
28.32
31.71
26.73
15.82
5.08
-3.24
-12.45
-24.48
-36.84
-46.8
-53.81
-58.03
-60.22
-62.47
-65.8
-67.89
-65.62
-60.15
-56.59
-57.27
-58.51
-56.81
-54.61
-56.14
-60.25
-62.61
-63.54
-68.67
-82.03
-98.6
-100.87
-69.24
-6.89
54.43
85.98
86.7
67.41
32.03
-11.72
-44.5
-55.36
-53.22
-47.52
-35.42
-16.24
0.24
8.08
12.19
17.61
22.89
24.8
22.6
17.43
10.89
4.09
-2.8
-8.84
-10.89
-7.04
-0.19
4.26
3.62
-0.56
-5.6
-10.82
-17.13
-24.48
-31.6
-37.58
-43.38
-51.98
-65.55
-80.39
-87.13
-79.07
-58.51
-32.88
-7.68
14.83
33.15
45.71
52.01
54.3
56.84
62.11
68.39
72.18
71.78
67.91
61.91
54.94
48.61
44.43
42.19
40.73
40.2
40.86
40.59
37.29
32.33
28.37
25.55
22.34
18.23
13.82
9.4
4.18
-2.73
-10.81
-18.81
-27.33
-38.91
-55.39
-74.7
-89.06
-89.41
-73.93
-50.28
-28.06
-11.31
1.21
11.48
20.27
28.23
36.23
43.98
51.11
59.08
68.88
77.67
81.53
80.75
78.12
74.36
68.47
60.71
52.67
45.26
37.67
28.37
17.39
6.64
-2.71
-11.65
-20.76
-28.75
-35.47
-43.89
-56.97
-72.88
-84.02
-82.14
-65.91
-41.8
-17.67
1.61
13.87
19.4
21.08
22.51
25.93
31.29
36.97
41.46
44.1
44.2
41.26
36.38
31.91
28.6
25.25
21.45
18.35
15.98
12.33
6.07
-1.42
-8.22
-14.61
-22.08
-30.6
-38.83
-46.73
-56.64
-70.09
-82.91
-85.96
-74.01
-51.44
-27.08
-6.65
8.9
20.76
29.53
34.99
38.14
41.08
44.73
48.4
50.81
50.69
47.99
44.13
40.7
38.02
35.28
31.64
27.71
24.87
23.07
20.76
17.06
12.82
9.29
6.16
1.86
-3.92
-9.32
-13.31
-17.56
-23.6
-30.38
-36.41
-42.28
-49.79
-60.27
-71.63
-76.65
-68.64
-49.85
-29.4
-13.42
-1.63
7.92
15.03
19.02
21.28
23.79
26.78
29.87
33.01
34.76
33.15
29.43
26.96
25.94
23.87
20.32
17.35
15.92
14.52
11.35
6.39
1.42
-2.15
-5.03
-8.87
-14.28
-20.22
-25.35
-29.96
-36.19
-45.49
-55.29
-59.01
-51.61
-35.69
-19.11
-6.5
2.64
9.09
12.65
14.56
16.47
18.59
20.92
23.54
25.64
26.08
24.64
22.03
19.33
17.2
15.4
13.46
11.21
8.52
5.79
3.93
2.68
0.5
-3.38
-7.87
-11.87
-15.73
-20.21
-25.09
-29.71
-34.12
-39.38
-46.96
-56.47
-63.16
-60.58
-47.51
-30.11
-15.32
-4.92
2.85
9.14
13.88
17.02
19.32
21.7
24.25
26.35
27.71
27.98
26.36
23.29
20.66
19.07
17.25
14.84
12.63
10.64
8.24
5.34
2.28
-0.91
-4.33
-8.01
-11.97
-16.23
-20.58
-24.25
-26.67
-29.02
-33.53
-40.09
-45.44
-47.03
-46.04
-45.84
-48.59
-52.52
-51.89
-42.17
-25.32
-7.49
6.85
16.89
24.1
30.08
34.85
37.9
39.86
41.68
43.55
45.09
45.28
42.64
36.77
29.25
22.05
15.43
8.49
1.66
-3.17
-4.96
-4.55
-3.72
-3.69
-3.74
-1.62
3.85
10.31
13.66
12.43
8.77
4.69
0.06
-5.43
-11.25
-17.15
-23.29
-29.88
-37.54
-45.79
-50.24
-45.71
-33.22
-19.35
-8.85
-1.73
3.45
6.99
8.73
9.46
10.62
12.64
15.07
17.73
19.86
19.77
17.28
14.46
13.04
12.8
12.54
11.36
9.3
7.36
6.03
4.47
1.88
-1.24
-4.0
-6.68
-10.45
-15.11
-19.2
-22.42
-26.24
-31.77
-39.24
-48.01
-54.33
-52.33
-40.75
-25.15
-11.42
-0.97
6.99
12.73
16.09
17.56
18.47
19.75
21.46
23.69
26.16
27.07
25.04
21.32
18.04
15.77
14.15
13.07
12.45
11.64
9.64
6.4
3.4
1.49
-0.92
-5.7
-12.0
-17.18
-19.78
-20.68
-21.82
-24.17
-27.01
-29.81
-33.84
-39.75
-44.14
-41.75
-31.42
-17.62
-5.51
3.28
9.52
13.62
15.75
17.23
19.32
21.79
24.14
26.63
28.86
29.59
28.49
26.27
23.45
20.91
19.33
17.83
15.35
12.64
10.43
7.83
3.93
-1.15
-6.67
-10.79
-12.33
-13.32
-16.63
-21.34
-24.07
-24.06
-24.61
-29.23
-37.01
-42.03
-38.46
-26.1
-10.38
2.73
10.87
15.18
17.26
18.12
18.94
20.81
23.8
27.53
31.2
33.06
31.94
28.91
25.75
22.73
19.5
16.52
14.41
12.41
9.18
4.7
0.31
-3.02
-5.8
-9.61
-15.38
-22.15
-28.19
-33.5
-40.3
-50.12
-59.74
-61.53
-51.08
-32.57
-14.17
-0.39
8.86
14.82
18.16
19.49
20.37
22.62
26.4
30.33
33.41
34.93
33.99
30.98
27.67
24.84
21.74
18.27
15.46
13.9
12.51
9.44
4.51
-0.47
-4.74
-9.43
-15.29
-21.82
-28.27
-34.16
-40.21
-48.98
-61.18
-71.58
-71.63
-58.03
-36.85
-17.3
-3.31
6.64
14.22
19.51
22.99
25.9
28.96
32.36
36.08
39.33
40.67
39.42
36.38
33.11
30.41
27.83
24.99
22.48
20.58
18.45
15.41
11.81
8.06
4.06
-0.3
-4.42
-8.09
-12.77
-19.68
-27.29
-33.76
-39.74
-47.34
-57.93
-69.38
-74.36
-66.32
-47.45
-26.36
-9.37
2.6
11.32
18.1
22.97
26.36
29.46
32.8
36.25
39.52
41.76
41.89
39.72
36.37
33.35
30.94
28.18
25.16
23.12
21.62
19.04
15.56
12.23
8.38
2.87
-3.19
-8.0
-12.28
-17.9
-24.26
-29.75
-35.39
-43.77
-55.22
-65.88
-68.95
-60.19
-42.74
-23.74
-7.67
4.54
12.87
17.93
21.35
24.71
28.36
31.89
35.04
37.66
38.97
38.38
36.4
33.97
31.47
28.81
26.25
24.01
21.69
18.93
16.17
13.75
11.21
8.14
4.63
0.78
-3.37
-7.38
-11.28
-16.13
-22.33
-28.29
-32.77
-37.79
-46.4
-58.27
-68.27
-69.09
-57.18
-37.07
-17.4
-3.19
6.29
13.38
18.75
21.9
23.16
24.22
26.66
30.52
34.35
36.48
36.09
33.62
30.36
27.43
25.05
22.82
20.64
18.94
17.71
16.01
13.27
10.12
7.24
4.2
0.36
-3.7
-6.97
-9.85
-13.91
-19.51
-25.38
-30.6
-35.81
-42.88
-53.21
-63.81
-66.55
-56.03
-36.88
-18.54
-5.34
4.0
10.64
14.49
16.59
18.54
20.76
23.25
26.19
28.7
29.03
26.82
23.15
18.66
13.4
7.95
3.18
-0.89
-5.09
-10.55
-17.71
-25.52
-32.43
-38.71
-46.03
-54.43
-62.11
-68.03
-71.7
-71.06
-63.33
-47.92
-27.57
-7.81
5.16
9.3
9.32
12.24
21.53
36.62
54.39
69.26
75.98
74.33
69.0
64.46
61.28
57.52
52.74
48.14
43.31
35.68
24.14
12.07
5.49
6.64
10.38
9.59
1.88
-9.45
-17.84
-17.99
-11.12
-3.77
-0.68
-1.65
-4.96
-10.49
-18.84
-27.84
-31.99
-27.73
-17.54
-6.2
3.76
10.92
13.55
12.12
9.73
8.98
10.28
12.72
15.03
16.15
15.87
14.48
11.96
8.41
4.72
1.87
-0.29
-2.74
-6.05
-9.97
-14.27
-19.4
-25.27
-30.63
-35.53
-42.28
-52.41
-63.89
-71.53
-69.32
-55.22
-34.45
-15.42
-2.33
6.77
14.92
21.85
25.74
27.59
30.61
35.8
40.56
41.32
37.12
32.46
34.03
40.6
41.22
28.63
8.63
-7.71
-14.24
-10.23
1.1
13.07
20.07
21.47
19.19
14.2
7.16
-0.61
-8.3
-16.01
-23.56
-30.3
-36.34
-43.11
-52.04
-63.64
-76.45
-84.59
-80.03
-62.25
-40.75
-24.01
-11.57
0.04
10.68
18.66
24.34
29.1
33.61
37.92
41.59
43.9
44.51
43.44
40.89
37.92
35.7
33.99
32.02
29.79
27.39
24.46
21.4
18.98
16.85
14.0
10.44
6.84
3.28
-0.45
-4.22
-8.4
-13.92
-20.69
-27.23
-32.68
-38.02
-45.1
-55.24
-66.81
-73.59
-68.95
-52.95
-32.88
-16.01
-3.86
5.87
14.35
20.82
25.05
28.37
31.78
35.0
37.67
39.74
40.3
38.11
34.28
31.72
31.0
29.98
27.77
25.53
23.63
21.14
17.94
14.94
12.3
8.76
3.58
-1.71
-5.28
-7.98
-11.88
-16.97
-22.15
-27.43
-33.47
-40.89
-49.62
-56.26
-54.44
-41.81
-24.1
-8.87
1.67
8.97
13.28
14.65
15.27
17.16
20.13
23.48
26.9
29.28
29.58
28.05
25.17
21.59
18.77
17.05
14.54
10.41
6.64
4.31
1.44
-3.49
-9.16
-13.44
-16.1
-19.0
-24.12
-30.92
-36.36
-38.19
-38.04
-39.45
-42.56
-42.58
-35.59
-23.63
-11.76
-2.56
4.62
10.98
16.37
19.79
21.46
23.18
25.99
29.13
31.45
32.32
31.63
